0.032247,0.27112,0.26565,0.63069,0.43575,0.47568,0.45203,0.34064,0.069866,0.33274,0.025816,-0.21758,-0.28206,-0.19665,-0.39417,-0.39918,-0.41459,-0.46111,-0.28289,-0.18538,0.030852,0.16302,0.24302,0.42695,0.38252,0.46712,0.34147,0.26943,0.23633,0.22114,0.024642,-0.092453,-0.3062,-0.39662,-0.33243,-0.36208,-0.51118,-0.47014,-0.13453,-0.12659,-0.010805,0.17304,0.24367,0.37226,0.46428,0.28279,0.42405,0.35408,0.30282,0.17848,-0.10225,-0.094723,-0.32854,-0.36491,-0.38957,-0.33201,-0.35834,-0.30818,-0.37358,-0.098001,0.14627,-0.039236,0.3456,0.15003,0.41895,0.49988,0.2589,0.4307,0.2681,0.21922,0.04268,-0.17559,-0.21073,-0.33144,-0.57416,-0.37702,-0.36185,-0.29195,-0.22213,-0.11553,-0.23565,0.31532,0.18491,0.29785,0.51022,0.39191,0.32724,0.42657,0.24118,0.032844,0.17425,-0.1489,-0.30766,-0.4616,-0.43169,-0.27777,-0.35163,-0.45396,-0.28104,-0.063324,0.13897,0.11387,0.17686,0.39078,0.31595,0.54424,0.35013,0.33099,0.10107,0.075018,0.045838,-0.0048361,-0.13143,-0.48931,-0.42202,-0.4114,-0.39368,-0.31008,-0.21571,-0.16068,0.0047775,0.094896,0.21475,0.47168,0.32363,0.43386,0.33071,0.45161,0.18523,0.0015361,-0.10791,-0.084683,-0.067481,-0.44541,-0.37789,-0.33045,-0.3506,-0.24115,-0.3538,-0.057534,-0.040695,-0.025014,0.2011,0.35253,0.55098,0.47996,0.40498,0.43285,0.20849,0.026461,-0.036266,-0.22014,-0.12758,-0.33338,-0.49733,-0.42365,-0.47572,-0.37694,-0.124,-0.0018358,-0.086953,0.085396,0.28277,0.34543,0.34184,0.51315,0.24355,0.57482,0.19348,0.15887,-0.078027,-0.24376,-0.15675,-0.3685,-0.41656,-0.45736,-0.3909,-0.23387,-0.24673,-0.12111,0.073648,0.18642,0.11715,0.30845,0.2284,0.45322,0.54845,0.454,0.30626,0.017647,-0.086637,-0.12891,-0.28508,-0.28585,-0.30193,-0.47214,-0.42651,-0.24199,-0.19286,-0.27299,-0.045573,0.091702,0.14499,0.33683,0.40779,0.53772,0.43976,0.4254,0.14299,0.13072,0.13008,-0.22467,-0.20649,-0.23224,-0.51009,-0.36541,-0.47301,-0.36138,-0.28288,-0.14763,0.0012843,0.07574,0.20572,0.40023,0.57292,0.27597,0.38017,0.37331,0.28798,0.2171,0.011813,-0.30069,-0.18069,-0.25198,-0.45022,-0.44129,-0.44424,-0.34225,-0.32927,-0.0032843,-0.11469,0.09242,0.37143,0.3695,0.35699,0.36873,0.42164,0.40635,0.29345,0.2866,-0.10094,-0.13273,-0.42867,-0.28187,-0.31094,-0.38835,-0.53432,-0.51449,-0.044006,-0.23973,0.10625,0.12625,0.25691,0.29926,0.47864,0.43143,0.32412,0.33836,0.27031,0.13805,0.065432,-0.062191,-0.46456,-0.39198,-0.40109,-0.37889,-0.34746,-0.30514,-0.30377,-0.0013771,-0.089718,-0.026007,0.26757,0.39849,0.4481,0.41702,0.42585,0.28725,0.32675,0.1847,-0.071214,-0.13525,-0.22441,-0.27897,-0.4999,-0.38159,-0.37628,-0.32246,-0.19629,-0.19665,0.017324,0.2073,0.18752,0.20628,0.45949,0.43252,0.43791,0.33452,0.15765,0.16711,0.077696,-0.11385,-0.27591,-0.34687,-0.42167,-0.55907,-0.38368,-0.2535,-0.26318,-0.21077,0.034973,0.21514,0.25949,0.36267,0.40248,0.34799,0.39646,0.434,0.22458,0.18854,-0.010688,-0.064691,-0.28901,-0.42807,-0.61486,-0.33465,-0.36764,-0.2764,-0.19756,-0.31367,-0.0046034,0.2987,0.31901,0.31641,0.3552,0.39084,0.43372,0.36889,0.16947,0.091544,-0.032696,-0.036474,-0.16497,-0.32289,-0.53181,-0.40161,-0.32543,-0.35572,-0.36806,-0.20101,0.073407,0.10977,0.26505,0.34367,0.44145,0.48027,0.41038,0.36649,0.26111,-0.0045079,0.068878,-0.05012,-0.23165,-0.37053,-0.45439,-0.57467,-0.40589,-0.30278,-0.1833,-0.17885,-0.092689,0.24546,0.35774,0.53184,0.28342,0.287,0.41499,0.37844,0.32007,0.094512,0.0029937,-0.12977,-0.41013,-0.39734,-0.38503,-0.47228,-0.34418,-0.32373,-0.2714,-0.13375,0.13169,0.028373,0.43818,0.46462,0.49612,0.2274,0.36916,0.24305,0.3041,0.060447,-0.01159,0.049239,-0.33031,-0.48045,-0.4381,-0.42361,-0.32061,-0.32198,-0.27659,-0.1009,-0.11086,0.15471,0.3378,0.32308,0.5058,0.381,0.50532,0.21915,0.27054,0.21052,-0.073069,-0.24379,-0.28134,-0.35596,-0.26556,-0.52772,-0.30574,-0.37726,-0.32193,-0.1871,0.18252,0.035415,0.36725,0.32264,0.32818,0.46922,0.38888,0.30601,0.264,0.041477,0.16097,-0.17424,-0.22043,-0.28938,-0.54049,-0.32,-0.34245,-0.44522,-0.23918,-0.24426,0.09704,0.099852,0.31233,0.32403,0.40874,0.35378,0.32954,0.27949,0.42904,0.14761,-0.015489,-0.15004,-0.0817,-0.35747,-0.37993,-0.51096,-0.41932,-0.45706,-0.20736,-0.21683,0.11098,0.20383,0.22568,0.29754,0.25404,0.48524,0.45351,0.28898,0.41011,0.14475,0.025407,-0.1511,-0.18037,-0.40892,-0.38938,-0.48793,-0.48483,-0.49154,-0.06758,-0.32308,0.23639,0.21021,0.048874,0.34228,0.49304,0.35267,0.47677,0.22787,0.23622,0.24804,-0.0032525,-0.046524,-0.27595,-0.44019,-0.3833,-0.45484,-0.22622,-0.45309,-0.26103,-0.30256,0.1261,0.15268,0.34768,0.28058,0.41648,0.52955,0.36229,0.40369,0.12594,0.12581,0.014793,-0.1722,-0.38266,-0.30337,-0.38246,-0.37424,-0.32082,-0.4425,-0.23573,-0.13219,0.10523,0.2202,0.18609,0.18856,0.34602,0.53808,0.41464,0.33565,0.19096,0.071888,0.036776,-0.075295,-0.22317,-0.35046,-0.30867,-0.45575,-0.40864,-0.43903,-0.22706,-0.14547,-0.1072,0.16938,0.24582,0.51203,0.42264,0.45602,0.37994,0.23771,0.13187,0.15245,0.12898,-0.11981,-0.17486,-0.40378,-0.37466,-0.44454,-0.47025,-0.25172,-0.2515,-0.42477,0.21092,0.11177,0.29867,0.3106,0.4339,0.41512,0.41702,0.32158,0.15862,0.094261,0.022971,-0.17364,-0.12712,-0.069336,-0.4929,-0.50256,-0.48785,-0.41834,-0.24405,-0.086377,0.023444,0.0049811,0.40036,0.44035,0.3174,0.42131,0.37962,0.36437,0.21429,0.086744,0.040643,-0.14268,-0.23346,-0.36462,-0.40729,-0.39483,-0.46332,-0.19932,-0.17312,-0.37863,-0.041424,0.20864,0.35155,0.20942,0.58956,0.43846,0.28293,0.33358,0.21419,0.31817,-0.18368,-0.17869,-0.18706,-0.24878,-0.54525,-0.26685,-0.52164,-0.41115,-0.2753,-0.050755,0.044659,0.12008,0.32775,0.28439,0.5649,0.45592,0.26251,0.30662,0.20621,0.068616,0.10957,-0.21288,-0.21541,-0.32609,-0.45536,-0.39318,-0.46001,-0.14688,-0.38388,-0.08377,-0.026957,0.13528,0.097691,0.43783,0.42633,0.5339,0.47472,0.28811,0.16235,0.11746,0.090757,-0.19802,-0.22605,-0.51606,-0.4711,-0.36915,-0.33293,-0.22298,-0.22224,-0.098602,-0.090029,-0.058967,0.34383,0.3802,0.42548,0.46511,0.33388,0.42757,0.32076,0.086911,-0.070748,-0.14592,-0.19421,-0.23487,-0.29279,-0.57703,-0.31599,-0.57733,-0.33722,-0.15902,0.042532,0.14732,0.24524,0.44467,0.40913,0.5088,0.4001,0.26341,0.14023,0.25222,-0.045977,-0.09025,-0.25974,-0.40881,-0.3777,-0.53982,-0.35887,-0.27715,-0.13322,-0.12292,0.046793,0.18095,0.13844,0.33408,0.45741,0.3314,0.4073,0.2252,0.23556,0.15063,0.01591,-0.091822,-0.18628,-0.40182,-0.34603,-0.35646,-0.44645,-0.35149,-0.1688,-0.1338,-0.053636,0.11001,0.22116,0.27207,0.56451,0.25638,0.43246,0.38941,0.30385,0.14989,-0.10691,-0.14101,-0.3153,-0.24657,-0.41978,-0.35357,-0.38126,-0.36144,-0.27718,-0.22131,-0.036904,0.10099,0.25412,0.38568,0.4159,0.49191,0.38684,0.42418,0.21323,0.086135,0.065373,-0.11165,-0.24102,-0.38653,-0.41231,-0.50542,-0.42176,-0.33168,-0.10127,-0.18119,-0.042274,0.1557,0.2689,0.35423,0.43146,0.23931,0.55072,0.42267,0.23648,0.10683,-0.018497,-0.24511,-0.22422,-0.17408,-0.50086,-0.53484,-0.34541,-0.42313,-0.23124,-0.17001,0.06922,0.10638,0.27367,0.39338,0.45363,0.4908,0.40673,0.13843,0.31444,0.070949,0.079558,-0.24423,-0.13531,-0.4283,-0.47458,-0.40724,-0.20312,-0.47318,-0.10386,-0.10702,-0.10257,0.20221,0.27634,0.31412,0.38888,0.25123,0.41018,0.40606,0.27768,0.094416,0.099379,-0.1776,-0.1921,-0.46225,-0.43172,-0.41547,-0.36064,-0.37558,-0.25896,-0.056041,0.07462,0.029901,0.22768,0.45106,0.37687,0.3879,0.5095,0.40793,0.17567,0.13717,-0.098573,-0.14078,-0.14322,-0.45124,-0.27505,-0.42555,-0.42119,-0.35083,-0.38818,-0.065219,-0.040223,0.034068,0.30965,0.33545,0.40599,0.47168,0.45205,0.3419,0.25759,0.13142,0.018615,-0.17651,-0.33324,-0.41969,-0.33066,-0.41672,-0.31313,-0.22058,-0.30709,-0.20618,-0.1557,0.12693,0.31869,0.48561,0.40781,0.38192,0.43506,0.27395,0.2715,0.13531,-0.11531,-0.16891,-0.22549,-0.23719,-0.3902,-0.26686,-0.49647,-0.33542,-0.26672,-0.10682,-0.089756,0.1421,0.23991,0.32767,0.38625,0.41256,0.41196,0.47822,0.22286,0.15117,-0.13926,-0.089552,-0.22168,-0.38971,-0.3497,-0.43553,-0.41143,-0.4389,-0.14937,-0.21512,0.013204,0.13792,0.31151,0.40924,0.26337,0.54859,0.46121,0.2586,0.16369,0.096333,-0.061977,-0.060496,-0.18606,-0.36716,-0.34977,-0.46417,-0.32142,-0.26441,-0.40869,-0.075301,0.01252,0.089735,0.3188,0.28954,0.34046,0.47184,0.38115,0.33789,0.34793,0.068233,0.013109,-0.062049,-0.36908,-0.33689,-0.42933,-0.39241,-0.39417,-0.35863,-0.35524,-0.073389,0.10786,0.1417,0.30415,0.33058,0.35799,0.44446,0.2529,0.51221,0.35337,-0.026153,-0.10083,-0.048002,-0.24222,-0.32106,-0.53904,-0.39462,-0.37722,-0.27489,-0.39427,-0.033088,-0.11872,0.11064,0.3584,0.42738,0.39579,0.49039,0.25337,0.38921,0.30225,-0.012315,-0.03793,0.091691,-0.21229,-0.26083,-0.35923,-0.52818,-0.56377,-0.31695,-0.31758,-0.25065,-0.0079446,0.15755,0.44319,0.26208,0.37335,0.64415,0.26592,0.33937,0.19101,0.22757,-0.024076,-0.034269,-0.22695,-0.26705,-0.54989,-0.46464,-0.50129,-0.47018,-0.15264,-0.03397,-0.024678,0.015063,0.32452,0.49,0.44527,0.32466,0.34463,0.39718,0.23771,0.21808,-0.10999,0.015029,-0.27595,-0.40102,-0.50441,-0.32386,-0.42086,-0.35062,-0.26456,-0.21385,-0.058913,0.11447,0.44846,0.28526,0.46517,0.31201,0.46923,0.41025,0.30567,0.16739,-0.17054,-0.13072,-0.17523,-0.51112,-0.44316,-0.31745,-0.4226,-0.2332,-0.30674,-0.02504,0.0095827,0.21087,0.13728,0.23885,0.49946,0.44226,0.28153,0.35763,0.26989,0.098602,-0.079105,-0.075308,-0.19095,-0.40334,-0.25236,-0.44784,-0.57178,-0.31744,-0.1511,-0.30878,0.19295,0.10656,0.1731,0.37392,0.34536,0.50811,0.52566,0.3891,0.27134,0.0021282,-0.025136,-0.071849,-0.38769,-0.39142,-0.34114,-0.50977,-0.45776,-0.31013,-0.2465,-0.15358,0.19686,0.15125,0.13899,0.30172,0.46444,0.5478,0.42306,0.22613,0.28174,0.15361,0.023335,-0.15913,-0.28963,-0.35154,-0.48526,-0.39502,-0.44901,-0.25963,-0.22835,-0.16256,0.079922,0.17126,0.24853,0.22625,0.51527,0.39688,0.36039,0.3408,0.35487,0.1533,-0.08973,-0.12685,-0.29334,-0.33165,-0.4911,-0.35519,-0.40652,-0.40165,-0.28392,0.013965,-0.10171,0.19755,0.28633,0.24743,0.42989,0.34854,0.49686,0.4066,0.25157,0.051086,-0.034713,-0.17169,-0.21634,-0.22577,-0.32853,-0.45504,-0.56813,-0.39682,-0.20514,-0.2416,-0.02494,0.23189,0.35272,0.29751,0.51697,0.42325,0.42603,0.36191,0.17359,0.12997,0.035209,-0.01881,-0.5021,-0.42952,-0.28092,-0.38322,-0.40672,-0.3143,-0.14705,-0.22952,0.047882,-0.045608,0.26877,0.34915,0.52059,0.34162,0.44809,0.43088,0.17745,0.16677,0.015515,-0.1294,-0.27166,-0.37577,-0.48586,-0.44232,-0.48059,-0.34997,-0.11109,-0.18759,0.064829,0.14504,0.35356,0.32229,0.38498,0.40944,0.28489,0.55057,0.11692,0.13297,-0.023622,-0.11288,-0.38791,-0.27323,-0.42857,-0.4817,-0.31085,-0.33531,-0.13934,-0.053232,-0.094092,0.074708,0.34807,0.28276,0.38271,0.36577,0.42705,0.43017,0.16911,0.057552,0.062313,0.003434,-0.18038,-0.49212,-0.41508,-0.39514,-0.39383,-0.38855,-0.42036,-0.017829,0.091833,0.19438,0.21387,0.22074,0.46993,0.34255,0.37564,0.45478,0.3316,0.091522,0.038488,-0.18763,-0.31476,-0.35315,-0.53236,-0.24837,-0.36974,-0.43426,-0.26836,-0.058496,-0.043037,0.077987,0.28871,0.44831,0.45346,0.41274,0.44519,0.35021,0.22598,0.10086,-0.032807,-0.16435,-0.1924,-0.44213,-0.35509,-0.5159,-0.37537,-0.38733,-0.19371,0.007635,-0.11886,0.109,0.22437,0.34146,0.42216,0.36186,0.3966,0.45017,0.26756,0.084167,0.031068,-0.076266,-0.42782,-0.37373,-0.23203,-0.44986,-0.41747,-0.21425,-0.39195,-0.064102,-0.047006,0.14109,0.29684,0.314,0.33269,0.47817,0.37779,0.33709,0.28809,0.20092,-0.039975,-0.24252,-0.22783,-0.23875,-0.49248,-0.40309,-0.28996,-0.36965,-0.22344,-0.13632,-0.075636,0.071581,0.1402,0.32335,0.5638,0.42038,0.54119,0.23562,0.18375,0.28799,-0.15013,-0.28339,-0.08913,-0.29412,-0.43111,-0.47227,-0.35158,-0.34078,-0.23696,-0.046498,0.082398,0.1301,0.10853,0.48852,0.32796,0.20801,0.46765,0.37505,0.20057,0.14727,0.13485,-0.0943,-0.26312,-0.30315,-0.52678,-0.52762,-0.47513,-0.44399,-0.038339,-0.094783,0.079385,0.089251,0.16672,0.41201,0.43462,0.37554,0.21233,0.52581,0.42217,0.0052013,0.11747,-0.1534,-0.28838,-0.41392,-0.41193,-0.3668,-0.50195,-0.28489,-0.35699,-0.10736,-0.06399,0.28069,0.20176,0.34352,0.46954,0.43162,0.38026,0.201,0.23289,0.25472,0.047261,-0.24218,-0.15195,-0.35557,-0.32288,-0.39075,-0.60694,-0.42614,-0.077111,-0.13991,-0.049675,0.16877,0.31925,0.28892,0.45865,0.32645,0.36191,0.29719,0.27038,0.31643,0.059967,-0.20753,-0.39609,-0.40853,-0.25304,-0.37298,-0.50967,-0.20433,-0.32156,-0.11503,-0.045872,0.15701,0.20964,0.29579,0.34722,0.63831,0.21185,0.45033,0.20252,0.18233,0.10137,-0.27429,-0.16969,-0.36076,-0.49764,-0.42413,-0.41825,-0.32691,-0.23085,-0.19083,0.036253,0.11374,0.32145,0.43006,0.30327,0.34283,0.44629,0.47552,0.31473,0.079584,-0.019352,0.001671,-0.37319,-0.36724,-0.47794,-0.27611,-0.51216,-0.37404,-0.22157,-0.072836,-0.0061636,0.070811,0.26139,0.35865,0.33462,0.33416,0.4546,0.43347,0.32361,0.16086,-0.020248,-0.24621,-0.30125,-0.36596,-0.40657,-0.38526,-0.37482,-0.25629,-0.203,-0.24934,0.10639,0.059019,0.24341,0.31249,0.51245,0.29815,0.51599,0.32735,0.22833,0.065134,-0.019246,-0.19952,-0.30126,-0.20375,-0.40962,-0.52519,-0.29056,-0.29184,-0.21585,-0.18315,0.077287,0.085892,0.19738,0.30993,0.38101,0.49501,0.51436,0.1699,0.2268,-0.0050355,0.10708,0.0016089,-0.3475,-0.29482,-0.39132,-0.43052,-0.35655,-0.30888,-0.25821,-0.2309,0.12813,0.012208,0.22196,0.28148,0.46513,0.49688,0.48873,0.45316,0.094731,0.16699,0.01034,-0.17471,-0.20248,-0.3347,-0.47594,-0.44693,-0.44056,-0.37609,-0.20979,-0.058334,-0.040245,0.035477,0.19528,0.44343,0.52616,0.32294,0.48384,0.34932,0.21529,0.22729,-0.059238,-0.17957,-0.19201,-0.47533,-0.38654,-0.46641,-0.50122,-0.37116,-0.20794,-0.1471,0.22146,0.11559,0.16566,0.41894,0.47426,0.3471,0.41451,0.2485,0.22792,0.10183,0.20454,-0.062783,-0.3526,-0.46691,-0.46172,-0.39079,-0.2245,-0.40908,-0.26575,-0.29214,0.10762,0.16939,0.31724,0.40482,0.19035,0.53021,0.38777,0.2694,0.17963,0.19969,0.14052,-0.075213,-0.096019,-0.39677,-0.52916,-0.42003,-0.45704,-0.39331,-0.22396,-0.21834,-0.034376,0.16569,0.29839,0.29664,0.40248,0.43825,0.37556,0.41291,0.1498,0.15556,0.1193,0.0085801,-0.31406,-0.28793,-0.47942,-0.33852,-0.51514,-0.45145,-0.28019,-0.26647,0.077576,0.14633,0.34367,0.36411,0.45952,0.31792,0.48087,0.33019,0.17114,0.22764,0.058167,-0.15916,-0.22281,-0.37367,-0.47604,-0.39061,-0.41761,-0.3692,-0.20038,-0.16474,-0.018459,0.31605,0.049496,0.29381,0.28926,0.62325,0.36351,0.4917,0.25966,0.14333,-0.10041,-0.21918,-0.24433,-0.40504,-0.20481,-0.5476,-0.27122,-0.29872,-0.26526,-0.20192,-0.034074,0.10653,0.15403,0.53059,0.35978,0.34339,0.44315,0.38115,0.14495,0.1088,0.036786,0.0036251,-0.27522,-0.23177,-0.5335,-0.42507,-0.34045,-0.53505,-0.18093,-0.15391,-0.079829,0.27028,0.29904,0.29283,0.39392,0.30285,0.30411,0.4617,0.41786,0.17765,-0.094821,-0.11389,-0.32112,-0.43882,-0.34393,-0.27201,-0.41868,-0.27658,-0.33819,-0.16948,-0.044823,0.25323,0.19947,0.34643,0.47127,0.39851,0.33571,0.3483,0.20303,0.096027,0.099921,-0.131,-0.15037,-0.45374,-0.38177,-0.51634,-0.37597,-0.43929,-0.20717,-0.046654,-0.044144,0.14361,0.33057,0.41159,0.4262,0.29091,0.39611,0.17583,0.22507,0.20908,0.018734,0.075362,-0.2994,-0.2922,-0.39908,-0.51176,-0.3862,-0.38082,-0.32096,-0.17698,-0.017868,0.39146,0.20157,0.29181,0.35447,0.44845,0.54802,0.27006,0.052963,0.16282,0.13094,-0.34762,-0.16082,-0.21698,-0.3826,-0.61486,-0.4061,-0.30637,-0.19617,-0.094297,0.040929,0.21995,0.11734,0.44321,0.22912,0.42704,0.42432,0.43589,0.13226,0.12233,0.097482,-0.13053,-0.2106,-0.37953,-0.49645,-0.36229,-0.38492,-0.27354,-0.32805,-0.15668,0.074035,-0.0059342,0.26923,0.34414,0.50647,0.57467,0.51075,0.23816,0.11603,0.033977,0.10874,-0.14498,-0.31397,-0.31975,-0.37111,-0.51685,-0.35995,-0.41596,-0.30649,-0.026775,-0.048258,0.055445,0.38005,0.42185,0.42824,0.44683,0.31315,0.27656,0.32509,0.13271,-0.059596,0.072316,-0.30001,-0.38755,-0.42127,-0.63129,-0.33148,-0.22752,-0.18256,-0.22969,-0.10211,0.2346,0.19748,0.47032,0.30462,0.49496,0.32505,0.30394,0.18419,0.2452,0.062739,-0.12699,-0.12722,-0.43128,-0.55972,-0.36904,-0.39023,-0.33004,-0.33768,-0.061111,0.0475,-0.0040784,0.23323,0.44103,0.3642,0.59591,0.38823,0.30778,0.11425,0.1191,0.034188,0.027835,-0.35593,-0.38867,-0.42618,-0.43005,-0.40967,-0.25141,-0.23462,-0.24303,0.18405,0.024491,0.24372,0.44706,0.52749,0.3125,0.39244,0.28198,0.25701,0.14115,-0.10032,-0.069199,-0.18314,-0.33105,-0.4057,-0.40361,-0.56223,-0.40083,-0.29429,-0.08663,0.037666,0.093323,0.30111,0.35328,0.46949,0.40035,0.39224,0.38328,0.2304,0.21887,-0.076013,-0.094514,-0.26991,-0.29994,-0.482,-0.3345,-0.6334,-0.41533,-0.055234,0.0083611,-0.0071036,0.029067,0.19365,0.27127,0.44414,0.56619,0.36965,0.32131,0.21645,0.23904,-0.04019,-0.10522,-0.35176,-0.27147,-0.53221,-0.38994,-0.52135,-0.064964,-0.25304,-0.2296,-0.033832,0.2467,0.24728,0.19002,0.48565,0.40402,0.30461,0.47101,0.25383,0.0067649,0.14148,-0.041569,-0.39399,-0.33133,-0.3355,-0.50693,-0.36791,-0.3592,-0.2738,-0.24286,0.11729,0.15769,0.22443,0.3419,0.5266,0.39159,0.33314,0.38575,0.34934,0.11669,-0.090526,-0.26187,-0.33379,-0.17702,-0.29556,-0.52624,-0.40402,-0.29198,-0.29108,-0.068102,-0.034399,0.061986,0.19239,0.43713,0.3903,0.41477,0.42686,0.26931,0.20983,0.19861,0.095166,-0.13588,-0.22175,-0.40996,-0.43926,-0.45631,-0.34735,-0.36675,-0.13147,-0.22354,0.045747,0.086262,0.27529,0.38347,0.21896,0.4239,0.33608,0.52453,0.33364,0.099857,-0.068755,-0.16656,-0.24656,-0.268,-0.44085,-0.3678,-0.45875,-0.24957,-0.3093,-0.25586,0.094698,0.20413,0.18185,0.26879,0.52252,0.37453,0.40384,0.44128,0.24228,0.031875,-0.032511,-0.023944,-0.32818,-0.23518,-0.41854,-0.5135,-0.4873,-0.25425,-0.22106,-0.1059,-0.14931,0.24486,0.22775,0.3768,0.53585,0.31824,0.46806,0.24028,0.084647,0.27528,0.015009,-0.080879,-0.34213,-0.30237,-0.48189,-0.38254,-0.50656,-0.33745,-0.018828,-0.08188,-0.064124,0.10355,0.097489,0.34656,0.49198,0.52198,0.32795,0.37278,0.27765,0.14226,-0.057456,-0.18831,-0.2369,-0.37826,-0.44774,-0.38323,-0.3515,-0.37117,-0.24323,-0.030625,-0.077691,0.15285,0.28812,0.31354,0.37897,0.42243,0.32521,0.48391,0.24587,0.054919,-0.03431,0.010256,-0.43234,-0.30154,-0.33557,-0.36533,-0.55312,-0.17518,-0.28437,-0.095211,-0.043716,0.1548,0.14768,0.34278,0.35435,0.4194,0.45042,0.35565,0.34993,0.15398,-0.25769,-0.18081,-0.16254,-0.28117,-0.2534,-0.54363,-0.311,-0.36199,-0.20514,-0.11336,0.046198,0.17905,0.25786,0.18166,0.36733,0.35843,0.44057,0.17213,0.34239,0.27427,-0.10607,-0.10444,-0.26837,-0.3663,-0.3052,-0.42866,-0.44051,-0.43641,-0.23188,-0.10561,-0.0015987,0.14707,0.29869,0.42392,0.32851,0.42019,0.43746,0.33961,0.27911,0.026765,0.058631,-0.18644,-0.28004,-0.16461,-0.42061,-0.38892,-0.63787,-0.24437,-0.076811,-0.22024,0.018954,0.11065,0.10933,0.26168,0.43764,0.4492,0.48491,0.31581,0.21686,0.28313,-0.074082,-0.21342,-0.20716,-0.30082,-0.42145,-0.43799,-0.49228,-0.24947,-0.26205,-0.090106,0.082305,0.18543,0.037794,0.45007,0.34983,0.43544,0.42227,0.16954,0.38776,0.14112,0.048447,-0.16458,-0.21409,-0.35991,-0.44129,-0.32528,-0.40853,-0.44204,-0.17717,-0.18818,-0.039227,0.09461,0.37618,0.37753,0.32109,0.42394,0.49873,0.37187,0.26318,-0.0078188,-0.041755,-0.057227,-0.35756,-0.32488,-0.397,-0.4425,-0.45727,-0.22847,-0.39686,-0.048488,-0.031774,0.089081,0.28181,0.34661,0.66462,0.23906,0.43998,0.41146,0.28423,0.13038,0.056001,-0.40607,-0.17144,-0.31411,-0.31746,-0.45875,-0.39016,-0.33587,-0.3758,0.055902,-0.1741,0.16845,0.20462,0.4461,0.4448,0.24592,0.57992,0.31086,0.15251,0.096762,0.09631,-0.13221,-0.50068,-0.18984,-0.4462,-0.3466,-0.322,-0.3202,-0.25456,0.010736,-0.12558,0.097466,0.1573,0.32903,0.27558,0.55979,0.41129,0.38101,0.29094,0.28756,-0.061762,-0.2527,-0.34389,-0.27945,-0.38347,-0.39482,-0.37696,-0.36363,-0.41252,-0.11369,0.14737,-0.0050665,0.32633,0.45459,0.29696,0.39838,0.39985,0.41768,0.32491,0.11842,-0.0019701,-0.19369,-0.23508,-0.52831,-0.37341,-0.22785,-0.31877,-0.50689,-0.12431,-0.2951,0.13434,0.15358,0.12837,0.26238,0.44489,0.53764,0.3461,0.24948,0.18999,0.19537,0.067509,-0.15152,-0.13392,-0.3801,-0.35781,-0.52912,-0.38337,-0.32682,-0.30072,-0.17555,0.05196,0.20636,0.11818,0.2672,0.50456,0.43814,0.55872,0.26751,0.19633,0.072022,-0.065969,-0.082128,-0.22628,-0.014344,-0.32265,-0.65424,-0.46698,-0.30252,-0.2964,-0.13155,0.031316,0.13731,0.12655,0.40532,0.36461,0.51574,0.21388,0.41119,0.2765,0.20955,-0.0079138,-0.19157,-0.21665,-0.26823,-0.43177,-0.46428,-0.37196,-0.43352,-0.35623,-0.26207,0.060943,0.14885,0.22979,0.62317,0.40616,0.45636,0.36442,0.16436,0.35708,0.2218,0.027388,-0.34703,-0.19913,-0.33773,-0.21944,-0.43563,-0.47541,-0.43275,-0.27748,-0.18101,0.092152,0.34401,0.12892,0.34069,0.40856,0.27668,0.44823,0.31267,0.19822,0.24858,0.062777,-0.2037,-0.15879,-0.36966,-0.44808,-0.40454,-0.48221,-0.36441,-0.29033,-0.16157,-0.031544,0.29408,0.28835,0.25716,0.45887,0.46806,0.46707,0.32803,0.10237,0.17885,0.019321,-0.25193,-0.089229,-0.40607,-0.34588,-0.55155,-0.29071,-0.39858,-0.33371,-0.085958,-0.074224,0.23991,0.36952,0.30018,0.61242,0.35131,0.33181,0.24173,0.15259,0.1937,-0.027797,-0.045459,-0.20668,-0.38729,-0.42361,-0.48482,-0.35963,-0.34521,-0.14035,-0.40498,0.20687,0.039209,0.35348,0.17763,0.4832,0.30615,0.63116,0.34241,0.26466,0.06526,-0.021034,-0.10999,-0.22699,-0.33564,-0.50894,-0.52015,-0.35387,-0.30702,-0.35233,0.01048,-0.036724,0.2364,0.13871,0.46248,0.39184,0.45989,0.2502,0.31969,0.39704,0.092379,-0.032535,-0.079037,-0.21871,-0.38696,-0.40538,-0.37861,-0.42501,-0.46487,-0.158,-0.1316,-0.014334,0.22785,0.057536,0.44827,0.40227,0.4583,0.48905,0.18162,0.44579,0.13499,-0.19604,-0.26805,-0.10989,-0.32226,-0.40889,-0.39436,-0.50474,-0.31735,-0.32179,-0.14125,0.10954,0.13678,0.33212,0.41104,0.37731,0.38356,0.46144,0.22185,0.23322,0.17974,0.052169,-0.19027,-0.22086,-0.33217,-0.50568,-0.5083,-0.45553,-0.2647,-0.21993,-0.048827,0.038792,0.12142,0.21458,0.32774,0.50075,0.42601,0.49525,0.34975,0.067817,0.1324,0.046998,-0.16089,-0.2134,-0.45107,-0.43304,-0.4784,-0.41701,-0.3056,-0.21524,-0.056734,0.071489,0.064192,0.38797,0.35337,0.32348,0.35915,0.33772,0.23434,0.38325,0.097651,0.087722,-0.19986,-0.12516,-0.32135,-0.50232,-0.34319,-0.33118,-0.47298,-0.35815,-0.092022,-0.053298,0.083793,0.31546,0.35057,0.47902,0.42174,0.52086,0.28873,0.25353,0.12196,0.017711,-0.23113,-0.16931,-0.39469,-0.49383,-0.15716,-0.48367,-0.53934,-0.25068,-0.20574,0.18055,0.17941,0.28263,0.31942,0.42526,0.27716,0.36696,0.47454,0.14642,0.061142,0.042738,-0.12307,-0.20659,-0.29247,-0.4829,-0.23444,-0.45697,-0.28143,-0.27485,-0.10069,-0.1274,0.19426,0.25374,0.23605,0.4734,0.23036,0.46631,0.4571,0.19521,0.17863,0.035946,-0.19216,-0.23596,-0.46279,-0.34702,-0.34731,-0.42891,-0.42182,-0.079603,-0.33397,0.10835,0.18152,0.33016,0.45971,0.15726,0.48455,0.42502,0.37325,0.21282,0.0086777,-0.064767,-0.076583,-0.23875,-0.28761,-0.32962,-0.53722,-0.40935,-0.30204,-0.34657,-0.0055985,0.068889,0.083214,0.2567,0.41255,0.35745,0.26055,0.46591,0.36331,0.13414,0.26328,0.044482,-0.14063,-0.19039,-0.32019,-0.4375,-0.56043,-0.41332,-0.28038,-0.32288,-0.21652,0.1396,0.20041,0.3316,0.14837,0.36639,0.55657,0.45025,0.15434,0.34825,0.14524,0.11356,-0.29162,-0.1421,-0.36535,-0.32979,-0.58652,-0.31007,-0.54403,-0.19025,-0.11592,0.011882,0.21786,0.20977,0.30139,0.41666,0.55536,0.35365,0.27244,0.096927,0.2661,0.035151,-0.13053,-0.1467,-0.35502,-0.49991,-0.49162,-0.37563,-0.18924,-0.21161,-0.17422,-0.0032943,0.18529,0.25015,0.23427,0.38244,0.40893,0.34801,0.33546,0.29121,0.061452,-0.015159,-0.042119,-0.20347,-0.3009,-0.41514,-0.36086,-0.44872,-0.31778,-0.43237,-0.056303,-0.1661,0.071014,0.37064,0.4865,0.53982,0.30886,0.32835,0.32829,0.24612,0.10574,0.053755,-0.16035,-0.18029,-0.34047,-0.40864,-0.50376,-0.39517,-0.29609,-0.15371,-0.10315,-0.17446,0.30302,0.18977,0.42304,0.13609,0.68776,0.30972,0.30221,0.24504,0.19134,-0.074811,0.0019678,-0.41398,-0.30927,-0.35888,-0.41906,-0.55007,-0.28318,-0.32877,-0.061294,-0.030413,0.19752,0.30288,0.3539,0.41805,0.39552,0.47512,0.26196,0.247,0.13161,-0.031607,-0.16543,-0.30768,-0.30514,-0.28172,-0.33229,-0.54277,-0.33264,-0.20942,-0.21302,-0.012624,0.19993,0.15233,0.33371,0.48116,0.39609,0.49025,0.37513,0.17444,0.27878,0.035233,-0.23306,-0.27789,-0.38797,-0.58099,-0.39611,-0.3589,-0.28236,-0.1939,-0.072117,-0.053604,0.048651,0.30987,0.30471,0.44247,0.39243,0.40416,0.47555,0.22331,-0.083136,-0.010917,-0.10383,-0.14172,-0.3859,-0.42092,-0.39504,-0.36907,-0.25857,-0.35659,-0.091735,-0.07367,0.12189,0.35636,0.26983,0.53733,0.40965,0.34554,0.41953,0.16498,0.1053,-0.016449,-0.20622,-0.18337,-0.24661,-0.46723,-0.33851,-0.4923,-0.26765,-0.30845,-0.18716,0.13686,0.1329,0.18718,0.41347,0.38131,0.32657,0.46125,0.26004,0.32368,-0.022127,-0.0025261,-0.10858,-0.24012,-0.3036,-0.50444,-0.40684,-0.40085,-0.44935,0.05658,-0.061815,0.06325,0.12987,0.083346,0.28727,0.37206,0.47426,0.3434,0.38042,0.34298,0.11652,-0.10667,-0.098995,-0.1979,-0.47406,-0.27732,-0.42311,-0.46603,-0.38532,-0.15842,-0.13202,-0.010873,0.06617,0.27734,0.22909,0.3973,0.72842,0.36812,0.26636,0.32454,0.062379,-0.052958,-0.14783,-0.25873,-0.32229,-0.35621,-0.41357,-0.49074,-0.37678,-0.28768,-0.1859,0.096949,0.32267,0.1493,0.31714,0.4142,0.52939,0.40452,0.32419,0.30325,0.020089,0.055644,-0.133,-0.37273,-0.36059,-0.39589,-0.40324,-0.43984,-0.25317,-0.20765,-0.22622,-0.10644,0.23451,0.32945,0.2831,0.32215,0.40751,0.3851,0.32649,0.36064,0.22967,-0.11657,-0.10048,-0.20858,-0.30332,-0.38038,-0.40744,-0.45439,-0.41805,-0.2301,-0.074322,0.068146,-0.0050924,0.2203,0.40363,0.41824,0.40658,0.40107,0.27363,0.37384,0.12698,-0.084031,-0.090302,-0.32368,-0.30367,-0.40944,-0.32186,-0.52243,-0.33697,-0.2094,-0.195,0.010138,0.19336,0.13962,0.3934,0.53585,0.43243,0.23458,0.31178,0.41456,0.05336,0.10243,-0.161,-0.31873,-0.32644,-0.42659,-0.33367,-0.4186,-0.46341,-0.27331,-0.24616,0.14303,0.17622,0.28068,0.42984,0.40107,0.39218,0.20199,0.4811,0.20374,0.1667,-0.016697,-0.10015,-0.28813,-0.43433,-0.37081,-0.32701,-0.58271,-0.2397,-0.13423,-0.12607,0.037963,-0.010631,0.2711,0.32651,0.47588,0.47998,0.35408,0.36075,0.28758,0.016108,0.05161,-0.17401,-0.27346,-0.28447,-0.38799,-0.32312,-0.47969,-0.40124,-0.28768,-0.15698,0.0033493,0.037287,0.44609,0.35352,0.54442,0.35837,0.32409,0.26127,0.32664,0.20647,-0.045464,-0.28459,-0.3531,-0.33053,-0.34077,-0.27319,-0.35489,-0.27508,-0.25414,-0.16759,-0.14679,0.22271,0.17526,0.13265,0.55987,0.43903,0.46108,0.24067,0.22939,0.12927,0.19905,-0.08497,-0.3287,-0.37356,-0.51698,-0.32274,-0.45408,-0.22028,-0.28292,-0.13787,-0.10146,0.051037,0.34899,0.42918,0.38237,0.53528,0.43917,0.23342,0.19202,0.08827,-0.0070891,-0.087638,-0.20978,-0.38619,-0.34828,-0.50196,-0.34586,-0.5078,-0.2545,-0.044605,0.00067593,0.25441,0.21269,0.35846,0.35923,0.39906,0.47419,0.38859,0.10858,0.13114,0.054182,-0.18122,-0.36086,-0.3498,-0.38303,-0.39381,-0.23457,-0.30724,-0.26441,-0.12479,0.045343,0.17426,0.22673,0.19047,0.43352,0.30299,0.40365,0.29597,0.21643,0.25584,0.075142,0.026747,-0.31381,-0.53475,-0.28548,-0.38464,-0.38227,-0.45713,-0.22313,-0.19972,-0.0031583,0.064284,0.1897,0.48394,0.57557,0.3544,0.34346,0.41001,0.33595,-0.0079648,-0.054934,-0.23004,-0.20213,-0.22408,-0.45251,-0.37416,-0.4883,-0.40445,-0.14681,-0.14054,0.02598,0.19269,0.12031,0.40377,0.29894,0.48495,0.44848,0.43466,0.25847,0.18714,-0.047731,-0.27289,-0.29701,-0.27899,-0.4609,-0.43211,-0.32421,-0.21205,-0.27003,-0.21359,-0.064904,0.33037,0.085932,0.39303,0.40536,0.45723,0.27289,0.23732,0.43639,-0.024165,0.16461,-0.15141,-0.26073,-0.36718,-0.48759,-0.35421,-0.44514,-0.31936,-0.17117,-0.11147,-0.010366,0.26561,0.15321,0.27984,0.42497,0.27907,0.49545,0.31072,0.23412,0.08178,0.19851,-0.19058,-0.24512,-0.38569,-0.37977,-0.41116,-0.31514,-0.43802,-0.25338,-0.28403,0.044302,0.23321,0.29898,0.27287,0.4717,0.39237,0.41289,0.42356,0.12559,0.08108,-0.013866,-0.083086,-0.2571,-0.34972,-0.44993,-0.24369,-0.36596,-0.42038,-0.17437,-0.30122,0.14064,-0.030729,0.36522,0.23191,0.43576,0.33981,0.46286,0.30168,0.21752,0.30545,-0.10338,-0.050773,-0.33368,-0.39862,-0.30236,-0.40692,-0.38882,-0.25146,-0.3213,-0.15258,0.040726,0.16379,0.36771,0.21494,0.3755,0.36745,0.31656,0.46411,0.26701,0.0909,0.048345,-0.23534,-0.30806,-0.25873,-0.53398,-0.24148,-0.50789,-0.32691,-0.30941,-0.1489,0.024862,0.22586,0.34235,0.27813,0.36629,0.42769,0.55021,0.42824,0.10018,0.083004,-0.088118,-0.21188,-0.18165,-0.41149,-0.28003,-0.41676,-0.4205,-0.18193,-0.3277,-0.12399,0.040324,0.055149,0.26222,0.19446,0.49173,0.59723,0.43091,0.13475,0.45507,0.031078,-0.09155,-0.18588,-0.25581,-0.47916,-0.11247,-0.53644,-0.33415,-0.29094,-0.34429,-0.23538,0.14881,0.18548,0.12682,0.30037,0.36629,0.44749,0.44742,0.38117,0.28074,0.092807,0.099988,-0.28338,-0.11134,-0.34305,-0.31494,-0.48909,-0.51368,-0.32078,-0.23305,-0.11057,-0.0030545,0.18254,0.29462,0.27563,0.28283,0.48399,0.43301,0.40934,0.12267,0.085132,0.029164,0.0081666,-0.36205,-0.32267,-0.37489,-0.38548,-0.46902,-0.40901,-0.29587,-0.12847,0.031644,0.31662,0.071409,0.42415,0.49166,0.4078,0.31045,0.31005,0.20993,0.17321,0.00019883,-0.089341,-0.29135,-0.32327,-0.45808,-0.2943,-0.52448,-0.3244,-0.078988,-0.23626,-0.034211,0.16788,0.2196,0.40214,0.40152,0.53964,0.37726,0.1787,0.34023,0.11028,0.025585,-0.037245,-0.4005,-0.3306,-0.29057,-0.58968,-0.4527,-0.37207,-0.25836,-0.036458,-0.11372,0.12384,0.30156,0.36649,0.37554,0.43386,0.50607,0.29717,0.3532,0.26188,-0.078218,-0.18397,-0.18987,-0.40692,-0.55184,-0.38463,-0.35244,-0.31481,-0.33458,-0.16267,0.10603,0.15434,0.24232,0.30387,0.38721,0.44722,0.45623,0.30018,0.17792,0.159,0.035765,-0.10814,-0.28981,-0.49328,-0.42171,-0.35945,-0.25574,-0.3232,-0.23868,-0.096199,0.014291,0.068231,0.21668,0.25919,0.41543,0.46386,0.5097,0.33327,0.19387,0.21202,-0.086995,-0.17498,-0.35506,-0.29482,-0.33839,-0.49893,-0.40952,-0.27003,-0.22058,-0.15233,0.014098,0.12298,0.12685,0.38926,0.4668,0.43132,0.4192,0.36372,0.26719,0.071469,0.025404,-0.095768,-0.11761,-0.50509,-0.54735,-0.35988,-0.29848,-0.31639,-0.36875,-0.1918,0.089074,0.24088,0.31817,0.20913,0.47218,0.25779,0.45065,0.34982,0.3428,0.14149,-0.073555,-0.12885,-0.2285,-0.46124,-0.34754,-0.49607,-0.28288,-0.2846,-0.28119,-0.21922,-0.15165,0.22007,0.36834,0.3562,0.33195,0.45681,0.3902,0.3483,0.40076,0.099781,0.014267,-0.23612,-0.30772,-0.22853,-0.4437,-0.59547,-0.34594,-0.29625,-0.2135,-0.063055,-0.076938,0.15947,0.21747,0.38099,0.30847,0.43692,0.3579,0.50411,0.20324,0.14027,0.013814,-0.21423,-0.16693,-0.33827,-0.33045,-0.5132,-0.50355,-0.31454,-0.21271,-0.10288,0.068624,0.11803,0.22788,0.23151,0.40097,0.46097,0.50662,0.25037,0.2775,0.18574,0.098205,-0.13941,-0.33614,-0.35367,-0.44578,-0.38537,-0.52557,-0.37345,-0.28607,-0.045495,0.10104,0.19285,0.20514,0.31662,0.26566,0.58684,0.24668,0.44924,0.15181,0.14409,-0.028061,-0.069212,-0.13102,-0.38594,-0.27772,-0.56177,-0.52873,-0.27526,-0.19603,-0.11435,-0.16269,0.20238,0.3606,0.35282,0.38951,0.32773,0.38637,0.44623,0.25903,0.13666,0.071695,-0.18045,-0.24971,-0.4221,-0.51862,-0.4279,-0.29611,-0.3704,-0.14583,-0.19637,0.011871,0.080343,0.31793,0.42889,0.39101,0.39374,0.17234,0.23578,0.34612,0.32172,0.026275,-0.13817,-0.20052,-0.50986,-0.30057,-0.40845,-0.48755,-0.34538,-0.25056,-0.1338,0.080073,0.13098,0.25411,0.49136,0.19328,0.48636,0.28105,0.37991,0.41667,-0.0239,0.02557,-0.20009,-0.16473,-0.31243,-0.52595,-0.37115,-0.33562,-0.45127,-0.3294,-0.026024,-0.081742,0.16089,0.32857,0.36224,0.47087,0.30899,0.41955,0.41864,0.29208,0.25197,-0.21589,-0.09101,-0.27007,-0.35861,-0.32508,-0.45555,-0.36584,-0.45005,-0.24984,-0.093829,-0.015647,0.064547,0.323,0.47844,0.44227,0.31625,0.42965,0.36814,0.037499,0.13712,0.086934,-0.038374,-0.42751,-0.35413,-0.31606,-0.48919,-0.3428,-0.46242,-0.18133,-0.023776,0.052447,0.09498,0.23592,0.27504,0.35302,0.47308,0.39218,0.33287,0.30514,0.1571,-0.0073201,-0.058005,-0.25904,-0.48179,-0.42578,-0.25342,-0.43651,-0.4646,-0.23594,-0.18865,0.063221,0.2276,0.22176,0.43249,0.37298,0.38912,0.27849,0.31051,0.39476,0.16397,-0.054403,-0.17897,-0.28869,-0.25328,-0.39959,-0.3986,-0.37241,-0.3284,-0.37805,0.048553,-0.10332,-0.072419,0.2511,0.4456,0.42089,0.41302,0.39684,0.38494,0.28938,0.2138,-0.062204,-0.20738,-0.14717,-0.34912,-0.44054,-0.50338,-0.47721,-0.36523,-0.19217,-0.25699,0.11727,0.23289,0.3283,0.31716,0.33164,0.50395,0.3861,0.35934,0.35513,-0.034272,0.13818,-0.14659,-0.37301,-0.31662,-0.44031,-0.45693,-0.44964,-0.23734,-0.28002,-0.1436,0.060264,0.0415,0.38804,0.12964,0.40685,0.38891,0.48201,0.37893,0.29781,0.065517,0.16917,-0.18897,-0.25153,-0.41154,-0.27098,-0.50673,-0.53047,-0.36706,-0.043605,-0.15249,-0.061003,0.15101,0.29618,0.34727,0.49906,0.33449,0.33619,0.057565,0.30115,0.29192,0.026559,-0.12233,-0.17031,-0.38018,-0.466,-0.40223,-0.33722,-0.23554,-0.3445,-0.12658,-0.15552,0.13848,0.18696,0.38398,0.4323,0.49619,0.51161,0.47952,0.058087,0.1554,-0.10357,-0.032109,-0.28132,-0.37498,-0.42864,-0.48837,-0.42302,-0.22648,-0.16437,-0.09942,0.012918,-0.13036,0.22906,0.40524,0.461,0.46733,0.30726,0.33641,0.16485,0.2214,0.097863,-0.084115,-0.29988,-0.31202,-0.52389,-0.31848,-0.35791,-0.40588,-0.20345,-0.14801,0.060718,0.073312,0.29698,0.30932,0.31093,0.39512,0.38646,0.44371,0.16288,0.21034,-0.079645,-0.016514,-0.22918,-0.33785,-0.49748,-0.5145,-0.41319,-0.21429,-0.24328,-0.23201,0.085731,0.11556,0.33401,0.29151,0.4323,0.29502,0.32277,0.39711,0.27042,0.20771,0.0024407,-0.16472,-0.23293,-0.32395,-0.3512,-0.31867,-0.36175,-0.36785,-0.37065,-0.1755,-0.058826,0.09267,0.4091,0.26661,0.49039,0.29937,0.39415,0.34793,0.19622,0.22513,-0.048218,-0.026312,-0.33659,-0.4912,-0.39291,-0.30573,-0.35081,-0.3183,-0.26528,-0.03857,0.0748,0.055997,0.23596,0.23567,0.36822,0.47821,0.41616,0.20842,0.33002,0.17784,0.062515,-0.15059,-0.19679,-0.32622,-0.36796,-0.43224,-0.42387,-0.44996,-0.22522,-0.15553,-0.030344,0.13749,0.33484,0.25483,0.47377,0.45012,0.29415,0.15494,0.37505,0.10447,0.069165,-0.11042,-0.31979,-0.28674,-0.35403,-0.44251,-0.3371,-0.33229,-0.19132,-0.25106,0.1126,-0.030489,0.21214,0.40905,0.35646,0.46411,0.45,0.26786,0.31198,0.14029,-0.012802,-0.052899,-0.27562,-0.44884,-0.34859,-0.35536,-0.48211,-0.18928,-0.33996,-0.1856,0.092325,-0.041406,0.15435,0.32292,0.5189,0.5511,0.30768,0.25698,0.25302,0.17632,0.19864,-0.14843,-0.2052,-0.40757,-0.5155,-0.42496,-0.39494,-0.44814,-0.16671,-0.028254,0.0067544,0.24906,0.19601,0.22471,0.29242,0.47463,0.36852,0.37749,0.34104,0.17124,0.05652,-0.29513,-0.29724,-0.37149,-0.26385,-0.42024,-0.57615,-0.20094,-0.22374,-0.14905,-0.065928,0.23494,0.14935,0.55202,0.3901,0.35035,0.30052,0.34354,0.28244,0.1194,-0.04796,-0.055389,-0.31044,-0.30203,-0.4186,-0.34815,-0.54527,-0.23463,-0.34156,-0.21218,0.093169,0.29241,0.20537,0.37515,0.30409,0.28238,0.52981,0.4228,0.25587,0.096325,-0.10606,-0.17738,-0.10074,-0.37057,-0.34697,-0.40852,-0.52476,-0.50893,-0.15761,-0.14037,0.24588,0.08472,0.29718,0.35659,0.35386,0.36912,0.33252,0.47465,0.22975,0.07747,0.02947,-0.14858,-0.20583,-0.47223,-0.47163,-0.38012,-0.45687,-0.40163,-0.075846,-0.017772,-0.028106,0.011956,0.15099,0.55117,0.37713,0.44352,0.40461,0.46468,0.19717,0.097459,-0.13154,-0.24342,-0.19909,-0.34601,-0.33369,-0.49317,-0.38725,-0.30922,-0.10093,-0.17742,-0.049201,0.11044,0.22459,0.28669,0.54407,0.5036,0.31626,0.39808,0.35737,0.038672,-0.094978,-0.15226,-0.21523,-0.31977,-0.39875,-0.38301,-0.46963,-0.3989,-0.18281,-0.1161,-0.00036311,0.0035346,0.30991,0.41872,0.30301,0.44018,0.43242,0.45731,0.21705,0.11851,-0.023172,-0.24992,-0.18947,-0.26128,-0.42887,-0.46018,-0.46234,-0.30783,-0.085316,-0.34895,-0.16904,0.27128,0.19426,0.33445,0.50034,0.54701,0.37868,0.38642,0.25283,0.17305,-0.030528,-0.26879,-0.18092,-0.26772,-0.4223,-0.4504,-0.51466,-0.36799,-0.29217,-0.16839,0.14985,0.14539,0.1857,0.34328,0.39386,0.49391,0.44078,0.39707,0.22766,0.13735,0.08629,-0.12552,-0.39357,-0.3073,-0.47637,-0.41092,-0.43347,-0.39989,-0.12974,-0.16403,0.0066953,0.1462,0.11184,0.45793,0.38114,0.49561,0.42515,0.4614,0.19787,-0.0050615,-0.01415,-0.16286,-0.34967,-0.22253,-0.3093,-0.33388,-0.5653,-0.49768,-0.085513,-0.11929,0.060139,0.11252,0.097027,0.34922,0.37491,0.68352,0.2843,0.30542,0.14712,0.31552,0.059337,-0.25557,-0.21651,-0.47414,-0.44914,-0.14351,-0.38353,-0.44792,-0.21068,-0.1733,-0.070911,0.067236,0.28216,0.43693,0.41502,0.3162,0.34166,0.52581,0.18796,0.089021,0.12747,-0.26074,-0.17621,-0.38547,-0.47826,-0.33704,-0.40173,-0.32141,-0.22306,-0.10943,-0.078344,0.021328,0.29818,0.27262,0.54342,0.3601,0.40006,0.48443,0.20062,0.12613,-0.06049,-0.020423,-0.26228,-0.25523,-0.45361,-0.59127,-0.41681,-0.24044,-0.18969,-0.16099,0.00075594,0.043623,0.32653,0.26965,0.4437,0.31348,0.40381,0.48224,0.24088,0.15441,-0.041971,-0.27606,-0.15143,-0.23121,-0.40081,-0.40786,-0.38048,-0.48191,-0.23304,-0.053541,-0.11462,0.25231,0.17829,0.35286,0.33622,0.4052,0.50747,0.25744,0.29253,0.10642,0.011493,-0.19018,-0.15232,-0.21381,-0.40611,-0.61393,-0.39391,-0.20302,-0.22041,-0.13702,0.039526,-0.1056,0.29102,0.3558,0.42141,0.47571,0.32457,0.23868,0.35036,0.092909,-0.028315,-0.051098,-0.27984,-0.27632,-0.38318,-0.45527,-0.41375,-0.44421,-0.1977,-0.044914,0.058643,0.1704,0.19679,0.20352,0.37379,0.56355,0.4845,0.33258,0.19862,0.080201,-0.035145,-0.10305,-0.23544,-0.37069,-0.4627,-0.38558,-0.3391,-0.31331,-0.38125,-0.25027,0.069726,0.10585,0.12784,0.55053,0.46945,0.44372,0.36066,0.28541,0.41311,-0.0062202,0.037912,-0.12691,-0.2375,-0.40252,-0.27426,-0.35718,-0.58631,-0.33934,-0.22128,-0.18006,-0.017095,0.2214,0.23233,0.48076,0.29213,0.36358,0.35906,0.36424,0.25599,0.18463,0.018688,-0.13895,-0.21674,-0.23798,-0.33149,-0.5735,-0.46309,-0.50815,-0.038934,-0.14025,0.026286,-0.0047909,0.21099,0.4711,0.32758,0.6355,0.30376,0.27841,0.35751,0.052223,-0.17344,-0.017465,-0.316,-0.35145,-0.42411,-0.28322,-0.3715,-0.31302,-0.1933,-0.28559,-0.0060513,0.19372,0.27329,0.34388,0.49871,0.26914,0.29347,0.41124,0.15179,0.13397,-0.0046202,-0.13955,-0.21436,-0.34586,-0.34636,-0.47449,-0.33884,-0.31117,-0.27953,0.012963,-0.050357,0.15141,0.24252,0.47167,0.28961,0.36376,0.40697,0.36867,0.27578,0.13579,-0.022147,-0.21556,-0.34791,-0.21094,-0.56753,-0.36141,-0.37768,-0.2849,-0.34973,-0.10916,-0.012543,0.19088,0.15742,0.48945,0.471,0.41249,0.3854,0.23138,0.2896,0.16144,0.062679,-0.149,-0.16442,-0.39598,-0.54279,-0.5143,-0.2541,-0.27789,-0.36845,-0.15125,0.032902,0.098416,0.39983,0.33888,0.38361,0.38871,0.38405,0.35791,0.06681,0.22621,-0.022085,0.020972,-0.14213,-0.45041,-0.32346,-0.49303,-0.45782,-0.32353,-0.33721,-0.19039,0.060833,0.037584,0.10782,0.47461,0.47571,0.49601,0.4118,0.28969,0.33208,0.2536,-0.083284,0.058229,-0.40703,-0.47977,-0.44052,-0.46461,-0.35199,-0.27785,-0.32955,-0.048242,0.059479,-0.020984,0.29808,0.43913,0.29189,0.35415,0.47715,0.53384,0.19619,0.091967,0.055296,-0.14342,-0.31186,-0.4422,-0.5547,-0.24023,-0.37519,-0.32502,-0.22598,-0.21858,0.044486,0.24413,0.086701,0.37982,0.41762,0.45199,0.40195,0.38623,0.14509,0.18608,0.024214,-0.15977,-0.19023,-0.38078,-0.43122,-0.3556,-0.41629,-0.46243,-0.38138,-0.20405,0.16623,0.32945,0.21835,0.16889,0.37662,0.4501,0.60929,0.47472,0.19226,0.014738,-0.036589,-0.23216,-0.10792,-0.37546,-0.40678,-0.4961,-0.32266,-0.42061,-0.16096,-0.2134,0.046123,0.10106,0.34437,0.29768,0.36342,0.35398,0.4122,0.303,0.18678,0.19691,0.086512,-0.21924,-0.11984,-0.32222,-0.28616,-0.56834,-0.49349,-0.29428,-0.23112,-0.04256,-0.0032534,0.14204,0.20301,0.27971,0.46089,0.43931,0.40211,0.4036,0.19423,0.055771,0.093012,-0.068481,-0.38078,-0.37044,-0.56475,-0.33382,-0.34886,-0.32623,-0.20051,-0.19684,-0.05029,0.12363,0.33502,0.37394,0.37474,0.5159,0.38527,0.27659,0.33635,0.16713,-0.09516,-0.22363,-0.31538,-0.25983,-0.35917,-0.43779,-0.44401,-0.3533,-0.14871,-0.087013,-0.077818,0.090408,0.27795,0.27585,0.48058,0.42049,0.51007,0.28942,0.18341,0.30922,-0.17153,-0.22105,-0.1914,-0.24519,-0.55498,-0.38445,-0.37361,-0.26306,-0.21933,-0.13212,-0.10961,0.23661,0.30765,0.24833,0.47666,0.36969,0.29579,0.31916,0.26384,0.25278,-0.016755,-0.10795,-0.1949,-0.43002,-0.39604,-0.41531,-0.4278,-0.41227,-0.31482,-0.13112,-0.046569,0.28247,0.17602,0.33659,0.34418,0.54785,0.50911,0.25262,0.28964,0.033639,0.053934,0.04927,-0.30671,-0.42997,-0.53114,-0.32302,-0.36113,-0.26588,-0.26569,-0.20089,-0.031261,0.09847,0.18618,0.36105,0.38079,0.53134,0.34655,0.4132,0.13415,0.30495,0.0023385,-0.13853,-0.28654,-0.3896,-0.44624,-0.46058,-0.28151,-0.29394,-0.24184,-0.21454,-0.15237,0.32359,0.24687,0.34874,0.31416,0.51043,0.33908,0.46133,0.04504,0.19913,0.037383,-0.061716,-0.257,-0.5583,-0.49,-0.1634,-0.31873,-0.42659,-0.19534,-0.06664,-0.21753,0.12694,0.05864,0.44621,0.46195,0.52353,0.55932,0.31595,0.1752,0.14758,0.016167,-0.14511,-0.25687,-0.43046,-0.38503,-0.55196,-0.38326,-0.30221,-0.21286,-0.075371,0.020864,0.1947,0.23564,0.30414,0.55569,0.26912,0.33044,0.29779,0.33573,0.015417,0.0056456,-0.084025,-0.2972,-0.30132,-0.37423,-0.21798,-0.56491,-0.41125,-0.16677,-0.15986,-0.037907,0.042995,0.33908,0.38834,0.46129,0.42223,0.20491,0.53099,0.14128,0.15505,0.12585,-0.14222,-0.27694,-0.27763,-0.43031,-0.47682,-0.60484,-0.35719,-0.24865,-0.01211,0.028661,0.194,0.18929,0.44805,0.47239,0.38363,0.42441,0.22216,0.19059,0.19135,-0.059866,-0.1354,-0.11326,-0.39504,-0.39061,-0.50437,-0.30033,-0.24798,-0.34264,-0.14656,0.025881,-0.046508,0.20275,0.32779,0.50546,0.43833,0.31788,0.33033,0.32008,0.10072,-0.16816,0.10999,-0.29857,-0.27219,-0.21173,-0.3561,-0.4396,-0.54821,-0.39791,-0.18645,-0.016417,0.26054,0.42928,0.37941,0.2416,0.36909,0.58909,0.31479,0.2224,0.015252,0.011681,-0.21937,-0.2568,-0.29931,-0.30925,-0.51569,-0.25207,-0.25136,-0.41102,-0.033752,-0.012176,-0.015685,0.31936,0.37972,0.40743,0.38264,0.23816,0.51327,0.30251,0.23195,-0.0049104,-0.21017,-0.15505,-0.49366,-0.36298,-0.49927,-0.40391,-0.28087,-0.1534,-0.14836,0.0058816,-0.074367,0.14103,0.57565,0.46472,0.5204,0.33811,0.38496,0.14739,0.081212,-0.041779,-0.21539,-0.29637,-0.39725,-0.43965,-0.28532,-0.1987,-0.41246,-0.20083,-0.11739,-0.07667,0.074245,0.099637,0.45364,0.4097,0.53516,0.33072,0.3006,0.29241,0.11127,0.12237,-0.23935,-0.12021,-0.39081,-0.42628,-0.47614,-0.46888,-0.19156,-0.34624,-0.016853,-0.021806,0.12502,0.27296,0.35433,0.29642,0.3474,0.46011,0.31835,0.2613,0.18415,-0.0040986,-0.19865,-0.29299,-0.25556,-0.39265,-0.40386,-0.37305,-0.30335,-0.37791,0.070106,-0.051939,0.11274,0.081621,0.43047,0.43645,0.42089,0.44639,0.41948,0.29119,-0.10228,0.0081304,-0.13699,-0.20169,-0.37348,-0.3933,-0.42285,-0.43337,-0.29214,-0.25887,-0.059151,-0.070804,0.28608,0.17284,0.33539,0.2808,0.37951,0.54126,0.40254,0.17224,0.2057,-0.041579,-0.31164,-0.28774,-0.14502,-0.38613,-0.62875,-0.35183,-0.17729,-0.28214,-0.17088,0.03727,0.02351,0.24872,0.56349,0.28719,0.40902,0.42352,0.36841,0.32442,0.10935,-0.06525,-0.12222,-0.42979,-0.36619,-0.19603,-0.5,-0.38643,-0.31218,-0.22619,-0.13502,-0.072596,0.15988,0.26696,0.35502,0.4655,0.41625,0.30024,0.27939,0.32551,0.239,-0.054794,-0.25568,-0.35428,-0.26208,-0.34797,-0.39033,-0.35247,-0.39301,-0.2811,-0.10938,0.04053,0.34665,0.12671,0.34982,0.46088,0.33677,0.29265,0.40165,0.21914,0.17403,-0.053359,-0.096931,-0.19224,-0.52109,-0.28105,-0.5919,-0.35094,-0.32749,-0.22099,0.028583,-0.14729,0.070566,0.16879,0.48368,0.5148,0.4821,0.24034,0.2914,0.28957,0.14612,-0.09589,-0.017107,-0.35818,-0.36727,-0.27717,-0.32824,-0.50004,-0.34053,-0.14932,-0.29616,0.028116,0.24926,0.28763,0.42173,0.37777,0.2851,0.32617,0.4983,0.26097,0.23695,-0.060214,-0.25119,-0.39483,-0.25834,-0.57771,-0.25034,-0.26281,-0.27449,-0.077352,-0.027421
