3.2474,3.2186,3.1902,3.192,3.2011,3.215,3.2169,3.2237,3.2213,3.2307,3.2062,3.1853,3.1599,3.1648,3.1456,3.1643,3.1999,3.1917,3.2109,3.2038,3.1916,3.1695,3.1542,3.1422,3.1446,3.1932,3.2014,3.2072,3.2037,3.1931,3.1757,3.1669,3.1667,3.1541,3.1521,3.182,3.1916,3.1925,3.2067,3.1989,3.1812,3.169,3.1555,3.1547,3.1738,3.188,3.184,3.1876,3.2042,3.2005,3.1851,3.188,3.1784,3.1723,3.1334,3.119,3.1302,3.1171,3.1161,3.1169,3.1,3.1002,3.0926,3.0825,3.1149,3.1186,3.1201,3.1174,3.0987,3.0933,3.0919,3.0917,3.0889,3.0868,3.0933,3.0866,3.0817,3.0806,3.1018,3.0983,3.0904,3.0922,3.092,3.0775,3.0842,3.0894,3.0859,3.0634,3.0367,3.0543,3.0522,3.0524,3.0476,3.0445,3.0422,3.0566,3.0811,3.0785,3.0886,3.0808,3.0757,3.0742,3.0806,3.0657,3.0621,3.0777,3.0889,3.1047,3.1123,3.0923,3.0907,3.0885,3.0894,3.083,3.0987,3.0892,3.0914,3.0901,3.1135,3.108,3.1043,3.105,3.1096,3.1064,3.1106,3.0854,3.0962,3.0997,3.0948,3.0967,3.0969,3.0888,3.0783,3.075,3.076,3.042,3.0505,3.0821,3.086,3.0918,3.0916,3.0879,3.087,3.0849,3.0635,3.0479,3.0717,3.0812,3.0572,3.0503,3.0619,3.0591,3.0583,3.0566,3.0502,3.0611,3.0599,3.0715,3.0831,3.0847,3.0866,3.089,3.0972,3.1013,3.0712,3.0845,3.0787,3.0899,3.0955,3.1009,3.1002,3.1002,3.0997,3.0991,3.089,3.125,3.107,3.1126,3.1022,3.1101,3.1176,3.1158,3.1291,3.1336,3.112,3.1216,3.1353,3.1471,3.1565,3.1538,3.1533,3.1551,3.1564,3.1718,3.1737,3.1459,3.1308,3.133,3.1295,3.1363,3.1492,3.1506,3.1457,3.1723,3.1673,3.1434,3.1388,3.1482,3.1676,3.1655,3.1746,3.1752,3.1765,3.1743,3.1696,3.1873,3.1752,3.1824,3.1483,3.1539,3.1529,3.1526,3.1438,3.1741,3.1769,3.1749,3.1646,3.1595,3.1656,3.1705,3.1682,3.1686,3.1632,3.1724,3.1824,3.2056,3.2007,3.182,3.1625,3.1646,3.1699,3.1695,3.1698,3.1649,3.1643,3.1893,3.1771,3.1708,3.178,3.1782,3.1725,3.1722,3.1777,3.1799,3.1687,3.1758,3.1597,3.1594,3.1485,3.1492,3.1509,3.1492,3.1432,3.1485,3.1591,3.146,3.1743,3.1622,3.1517,3.15,3.1536,3.1538,3.1602,3.1642,3.1597,3.1332,3.1404,3.1424,3.1502,3.145,3.1432,3.1432,3.1295,3.1376,3.1566,3.1843,3.1712,3.1614,3.155,3.1439,3.1596,3.1575,3.1702,3.1645,3.1588,3.1586,3.1612,3.1628,3.1582,3.1491,3.1374,3.136,3.1334,3.1083,3.1123,3.142,3.1437,3.115,3.0927,3.1143,3.1115,3.1106,3.1099,3.1106,3.1152,3.1097,3.1169,3.127,3.1302,3.1294,3.1264,3.1264,3.1262,3.1002,3.0975,3.1049,3.1348,3.1418,3.1416,3.1322,3.1373,3.1374,3.1469,3.1559,3.1754,3.1564,3.1419,3.1404,3.1501,3.1494,3.1454,3.1446,3.1444,3.163,3.1757,3.1596,3.1719,3.1682,3.1683,3.1739,3.1706,3.1733,3.1666,3.1913,3.2184,3.2238,3.2027,3.194,3.1858,3.1964,3.1926,3.1916,3.19,3.1952,3.2124,3.2146,3.1938,3.1869,3.193,3.1942,3.1888,3.1905,3.187,3.1944,3.1901,3.2048,3.2085,3.2238,3.202,3.2055,3.2069,3.2077,3.2163,3.2156,3.2068,3.1585,3.1848,3.1782,3.1886,3.1987,3.1887,3.194,3.1802,3.1854,3.186,3.1831,3.1937,3.1879,3.1812,3.1877,3.1866,3.1905,3.1951,3.1984,3.1952,3.1966,3.1874,3.1892,3.2004,3.1882,3.1912,3.1918,3.1915,3.1958,3.1937,3.1894,3.1728,3.1633,3.1544,3.1728,3.1762,3.1755,3.1786,3.1712,3.1697,3.1599,3.1489,3.1507,3.1693,3.1707,3.1731,3.1737,3.1707,3.1586,3.1277,3.1251,3.1495,3.1548,3.1454,3.1558,3.1577,3.1578,3.1587,3.1372,3.1387,3.1392,3.1416,3.1601,3.1817,3.1708,3.1844,3.1905,3.1973,3.1675,3.1518,3.1514,3.1629,3.1772,3.1761,3.1703,3.1794,3.1794,3.1794,3.1742,3.1683,3.1612,3.1656,3.1574,3.1735,3.1721,3.1849,3.1855,3.1854,3.1865,3.1824,3.1695,3.1907,3.1712,3.1893,3.1803,3.1758,3.175,3.1703,3.1809,3.1755,3.1874,3.1656,3.1671,3.1755,3.1679,3.1652,3.1616,3.1691,3.1532,3.1424,3.1443,3.1553,3.1586,3.1616,3.1563,3.1569,3.153,3.149,3.1492,3.1554,3.1241,3.1409,3.1488,3.1479,3.147,3.1409,3.1412,3.1442,3.1383,3.1633,3.1651,3.1781,3.1838,3.1804,3.154,3.1543,3.1569,3.1556,3.1594,3.1649,3.1643,3.1543,3.1614,3.1383,3.1416,3.1627,3.1678,3.1632,3.1693,3.1705,3.19,3.1801,3.1751,3.1782,3.1556,3.1537,3.1537,3.1548,3.1522,3.1264,3.1409,3.1433,3.1437,3.1331,3.1419,3.1264,3.1176,3.1105,3.1357,3.148,3.1253,3.1338,3.1204,3.1334,3.1318,3.1232,3.1234,3.1263,3.1229,3.1131,3.1162,3.108,3.1342,3.1076,3.1015,3.1098,3.1076,3.1108,3.1112,3.1056,3.1335,3.1194,3.1112,3.1029,3.1077,3.1214,3.1268,3.1272,3.1093,3.1045,3.1287,3.1177,3.1447,3.1404,3.1436,3.1413,3.1398,3.1344,3.146,3.1532,3.1846,3.1718,3.1555,3.1526,3.1535,3.1534,3.1551,3.1614,3.1609,3.1583,3.176,3.1676,3.1746,3.1475,3.1627,3.1605,3.1588,3.1571,3.1491,3.1379,3.1384,3.1506,3.1634,3.1676,3.169,3.1676,3.1662,3.1702,3.1734,3.1896,3.2024,3.1928,3.1755,3.1733,3.1711,3.1441,3.1383,3.1369,3.1415,3.1491,3.148,3.155,3.1451,3.1577,3.1699,3.1697,3.1704,3.169,3.1724,3.1804,3.1555,3.1683,3.1464,3.1714,3.18,3.1828,3.183,3.1864,3.1706,3.1712,3.1817,3.1945,3.197,3.187,3.1829,3.1917,3.1918,3.1899,3.1919,3.1973,3.1936,3.2148,3.2014,3.2072,3.2053,3.1852,3.1853,3.1836,3.1671,3.1778,3.156,3.1429,3.1565,3.1469,3.1484,3.1359,3.1306,3.1268,3.1268,3.1427,3.1143,3.1232,3.1116,3.1043,3.0966,3.0991,3.0992,3.0989,3.0894,3.0883,3.0882,3.0651,3.0843,3.0937,3.1017,3.1046,3.1045,3.1004,3.1089,3.1016,3.0966,3.0918,3.081,3.0987,3.0873,3.0941,3.0942,3.0929,3.1018,3.0948,3.0934,3.0864,3.0741,3.0899,3.093,3.0919,3.0913,3.087,3.0881,3.0691,3.0606,3.08,3.0909,3.1006,3.0943,3.0981,3.097,3.1004,3.093,3.0899,3.0907,3.0649,3.096,3.0953,3.0877,3.0884,3.0876,3.0939,3.0959,3.0919,3.1185,3.111,3.1141,3.0892,3.0795,3.08,3.0805,3.0788,3.0812,3.0743,3.0805,3.0776,3.0784,3.0703,3.0831,3.0736,3.0743,3.0827,3.0747,3.0773,3.0907,3.0704,3.0561,3.08,3.0789,3.0783,3.0797,3.081,3.0903,3.0882,3.0788,3.0712,3.0715,3.0901,3.0936,3.0913,3.0929,3.0966,3.097,3.1054,3.1161,3.1234,3.1123,3.1151,3.1213,3.1189,3.1194,3.1176,3.118,3.1387,3.1105,3.1241,3.1356,3.138,3.1282,3.1276,3.1273,3.1273,3.1147,3.1375,3.1215,3.1304,3.1355,3.1343,3.1461,3.139,3.139,3.1376,3.1426,3.1368,3.1355,3.1324,3.1411,3.1311,3.1344,3.136,3.1353,3.1383,3.1467,3.151,3.1414,3.1283,3.1155,3.1057,3.1192,3.1207,3.1243,3.123,3.1277,3.1453,3.1421,3.1562,3.1381,3.1215,3.1244,3.1255,3.1275,3.1225,3.1226,3.1267,3.1109,3.0762,3.0968,3.086,3.0889,3.0861,3.0866,3.088,3.0852,3.0775,3.0683,3.0568,3.0575,3.0916,3.0836,3.0865,3.0886,3.0802,3.0852,3.0801,3.0634,3.0673,3.0881,3.083,3.0849,3.0905,3.0888,3.0853,3.0886,3.0997,3.0865,3.1248,3.1319,3.1162,3.1081,3.1082,3.1072,3.1027,3.1024,3.0896,3.0793,3.0862,3.0819,3.0703,3.0865,3.0869,3.0861,3.0872,3.0953,3.0759,3.0717,3.0834,3.0648,3.0562,3.071,3.0687,3.0671,3.0645,3.0833,3.0687,3.0863,3.0819,3.0784,3.0793,3.0753,3.0755,3.0771,3.0802,3.0796,3.0791,3.0731,3.0691,3.0461,3.0699,3.0794,3.0767,3.0783,3.0736,3.0651,3.0531,3.0827,3.0798,3.087,3.0913,3.1012,3.0945,3.0929,3.0922,3.0966,3.088,3.0864,3.1017,3.0815,3.0939,3.0967,3.0938,3.0919,3.0886,3.0877,3.0896,3.0858,3.1193,3.1307,3.1288,3.1335,3.1417,3.1404,3.1412,3.1632,3.1571,3.1555,3.1941,3.1785,3.1606,3.1586,3.1631,3.1602,3.1591,3.1594,3.1467,3.1752,3.1793,3.1922,3.1966,3.1968,3.1897,3.1898,3.1868,3.1881,3.1995,3.2196,3.1891,3.1743,3.1886,3.1932,3.1992,3.2005,3.2,3.2064,3.2105,3.231,3.2139,3.2253,3.2335,3.2185,3.2247,3.2252,3.226,3.2414,3.241,3.2565,3.2372,3.2487,3.257,3.2528,3.2564,3.2608,3.2629,3.2466,3.2693,3.2712,3.263,3.2666,3.2552,3.2503,3.2495,3.2478,3.2515,3.2402,3.2321,3.2508,3.2505,3.2528,3.2321,3.2241,3.2255,3.2249,3.2254,3.2219,3.2312,3.1959,3.2029,3.2316,3.2355,3.2149,3.2295,3.2331,3.233,3.2177,3.211,3.2052,3.208,3.2409,3.2409,3.2381,3.2381,3.238,3.2375,3.2537,3.2667,3.2648,3.2619,3.2452,3.2446,3.2384,3.2323,3.2383,3.238,3.2105,3.214,3.2259,3.208,3.2249,3.2149,3.2216,3.2172,3.2172,3.2209,3.226,3.2341,3.2237,3.2144,3.2067,3.1826,3.1871,3.1911,3.192,3.1966,3.1897,3.16,3.1706,3.1788,3.1806,3.174,3.1849,3.1812,3.1805,3.183,3.1846,3.1766,3.1745,3.1778,3.176,3.182,3.1837,3.1765,3.1776,3.1817,3.1629,3.1597,3.1547,3.1585,3.1628,3.1623,3.1575,3.1535,3.1491,3.151,3.1536,3.1201,3.1059,3.1229,3.1459,3.1623,3.154,3.1632,3.1633,3.1647,3.1814,3.1863,3.1891,3.1865,3.2025,3.203,3.1963,3.1974,3.1967,3.1958,3.2294,3.2328,3.2351,3.2268,3.2017,3.2014,3.2012,3.1945,3.189,3.1876,3.1942,3.1914,3.2151,3.193,3.1812,3.1865,3.1799,3.1843,3.1842,3.1861,3.174,3.1721,3.1909,3.1809,3.1842,3.1884,3.1808,3.1826,3.1771,3.1769,3.1934,3.1955,3.1849,3.164,3.1485,3.1883,3.178,3.177,3.177,3.1751,3.1855,3.1778,3.1697,3.1816,3.1651,3.1722,3.167,3.1633,3.1637,3.16,3.1693,3.1739,3.1551,3.1513,3.1596,3.1705,3.1551,3.1519,3.1513,3.1487,3.1402,3.1612,3.1503,3.155,3.1534,3.1518,3.167,3.167,3.1667,3.1665,3.1608,3.1588,3.1645,3.1638,3.1471,3.1537,3.161,3.162,3.162,3.1629,3.1712,3.1828,3.2102,3.1875,3.1582,3.1631,3.1678,3.1591,3.1593,3.1518,3.1452,3.1631,3.1533,3.1519,3.1546,3.1533,3.1566,3.1555,3.1555,3.1597,3.1255,3.1272,3.1348,3.1537,3.1499,3.158,3.1605,3.1522,3.154,3.1556,3.1521,3.1513,3.1365,3.1388,3.1318,3.1346,3.1409,3.1376,3.1378,3.136,3.1534,3.1531,3.1241,3.1252,3.1161,3.1038,3.1265,3.1215,3.1212,3.121,3.1151,3.1142,3.1082,3.118,3.1279,3.0974,3.1086,3.1122,3.1124,3.1198,3.104,3.1011,3.1106,3.0994,3.0974,3.1013,3.1062,3.1087,3.1082,3.1081,3.0918,3.0957,3.1233,3.1302,3.1478,3.1271,3.128,3.1407,3.1436,3.1564,3.1525,3.1277,3.1299,3.1405,3.1355,3.1299,3.1106,3.1109,3.1107,3.1073,3.1018,3.1323,3.1142,3.1023,3.1147,3.1041,3.0928,3.095,3.0977,3.0934,3.0886,3.0833,3.0823,3.1173,3.1315,3.1329,3.1216,3.1225,3.1232,3.1235,3.1146,3.1096,3.1069,3.1022,3.0774,3.1023,3.1227,3.1211,3.1231,3.1226,3.13,3.1261,3.1331,3.112,3.1298,3.1188,3.1332,3.135,3.1334,3.144,3.1425,3.1427,3.1494,3.1582,3.1562,3.1304,3.1276,3.1369,3.1371,3.1455,3.1199,3.1178,3.1259,3.1179,3.1489,3.1704,3.147,3.1495,3.1495,3.1509,3.153,3.1506,3.1664,3.1471,3.1452,3.1412,3.1396,3.1491,3.1494,3.1469,3.1636,3.1809,3.1527,3.149,3.1768,3.1618,3.1703,3.1694,3.1688,3.1719,3.1758,3.1731,3.1418,3.1783,3.1391,3.1624,3.1636,3.1557,3.1538,3.153,3.1563,3.1632,3.1729,3.1661,3.1742,3.1728,3.1723,3.1777,3.1768,3.1762,3.1906,3.1822,3.1797,3.1914,3.1883,3.2017,3.2109,3.2085,3.2057,3.2043,3.2152,3.2219,3.2143,3.1827,3.1884,3.1794,3.1869,3.1863,3.1853,3.1849,3.1912,3.1848,3.1727,3.1681,3.1935,3.1796,3.168,3.1721,3.1699,3.1758,3.177,3.1711,3.1704,3.1726,3.155,3.1525,3.1388,3.1469,3.148,3.136,3.139,3.1357,3.1425,3.1269,3.1463,3.1569,3.1566,3.147,3.1467,3.1437,3.1544,3.1409,3.151,3.1705,3.1254,3.1099,3.1165,3.1187,3.1193,3.1159,3.1058,3.1078,3.0973,3.1195,3.1409,3.1314,3.1279,3.1119,3.1132,3.1062,3.1004,3.0875,3.1019,3.1093,3.0879,3.0966,3.0907,3.0971,3.0995,3.0955,3.0964,3.095,3.1105,3.0845,3.1158,3.1162,3.1111,3.1102,3.1086,3.1014,3.1034,3.1004,3.097,3.1002,3.1033,3.1089,3.1074,3.1021,3.1021,3.1003,3.0897,3.0916,3.1214,3.1192,3.1248,3.1081,3.0996,3.1069,3.1075,3.1126,3.0961,3.1108,3.0981,3.1208,3.119,3.1187,3.1178,3.1204,3.1282,3.1295,3.123,3.1305,3.1485,3.1499,3.1444,3.1242,3.1158,3.1133,3.1199,3.1108,3.1162,3.1297,3.1373,3.138,3.1236,3.1399,3.1445,3.1482,3.1483,3.1523,3.1588,3.1693,3.1334,3.1639,3.1455,3.14,3.1369,3.1425,3.1456,3.1402,3.1272,3.1457,3.1634,3.1477,3.1674,3.1784,3.1789,3.1811,3.1804,3.1835,3.1914,3.1901,3.1928,3.1845,3.165,3.1873,3.1828,3.1865,3.187,3.187,3.1835,3.1829,3.1949,3.1838,3.2055,3.2223,3.2242,3.2269,3.2253,3.2286,3.2392,3.2475,3.2467,3.2241,3.2229,3.208,3.2111,3.2149,3.2154,3.2146,3.2159,3.2202,3.2202,3.2129,3.2098,3.209,3.2084,3.2121,3.2119,3.2272,3.2217,3.2045,3.1742,3.2187,3.2028,3.2214,3.2247,3.2199,3.2209,3.2234,3.2269,3.2173,3.2005,3.2134,3.1856,3.178,3.1823,3.1853,3.1777,3.1774,3.1768,3.1935,3.1785,3.1781,3.1819,3.195,3.1902,3.1904,3.1841,3.1835,3.1758,3.1499,3.1612,3.1656,3.1759,3.1946,3.1887,3.179,3.1782,3.1851,3.1834,3.1711,3.1898,3.1599,3.1508,3.173,3.1953,3.194,3.1924,3.1935,3.2082,3.2136,3.1884,3.1723,3.167,3.1546,3.1648,3.1618,3.1619,3.1677,3.1599,3.165,3.1745,3.1692,3.1647,3.157,3.1599,3.1576,3.1569,3.1596,3.1475,3.167,3.1537,3.1777,3.1582,3.1564,3.1508,3.1399,3.1392,3.1391,3.1377,3.1435,3.1388,3.1362,3.1243,3.1118,3.1153,3.1139,3.1135,3.1103,3.1167,3.108,3.0972,3.1148,3.1107,3.1121,3.1222,3.1229,3.1229,3.1314,3.1375,3.1373,3.144,3.114,3.1409,3.1139,3.1035,3.1045,3.1056,3.1173,3.1119,3.093,3.1099,3.1224,3.137,3.1378,3.1327,3.1276,3.1277,3.1336,3.132,3.1184,3.106,3.1164,3.1138,3.1209,3.1204,3.1209,3.1222,3.1249,3.1199,3.1343,3.1282,3.1203,3.1255,3.0915,3.1035,3.1037,3.1035,3.0918,3.089,3.0943,3.1106,3.1487,3.1754,3.1506,3.125,3.1201,3.1205,3.1218,3.1211,3.1066,3.1097,3.1406,3.1333,3.1487,3.1455,3.141,3.1411,3.1313,3.148,3.1572,3.151,3.1575,3.1552,3.1481,3.1583,3.1596,3.1586,3.1567,3.1674,3.1586,3.1636,3.1844,3.1794,3.1572,3.1556,3.1636,3.165,3.1704,3.1593,3.1675,3.1534,3.1788,3.1707,3.1804,3.1777,3.1803,3.1809,3.1825,3.171,3.1868,3.2109,3.1912,3.1917,3.1861,3.1878,3.1835,3.1838,3.1596,3.1618,3.179,3.1801,3.2042,3.1808,3.1842,3.1859,3.1839,3.1814,3.1625,3.1784,3.1947,3.2002,3.1699,3.1704,3.1655,3.1681,3.176,3.1811,3.1736,3.1808,3.1813,3.2166,3.2034,3.1993,3.182,3.1896,3.1904,3.1905,3.1886,3.1869,3.1815,3.1686,3.1736,3.1999,3.2133,3.21,3.2074,3.2067,3.2081,3.2109,3.2119,3.2063,3.1797,3.1628,3.177,3.1833,3.1906,3.1897,3.1878,3.1837,3.1818,3.1966,3.1722,3.2148,3.2147,3.2005,3.2004,3.2001,3.1997,3.183,3.1665,3.1687,3.1877,3.1938,3.198,3.1888,3.195,3.1947,3.1956,3.2008,3.1889,3.2054,3.1667,3.1922,3.1847,3.1896,3.1896,3.1881,3.189,3.1925,3.1634,3.1859,3.173,3.171,3.1914,3.1961,3.1867,3.1892,3.187,3.2087,3.1968,3.1653,3.1843,3.1816,3.1848,3.1787,3.1873,3.1891,3.193,3.1924,3.1802,3.2029,3.1712,3.165,3.1735,3.1906,3.1905,3.1916,3.2022,3.1999,3.1811,3.1662,3.1807,3.18,3.1835,3.1881,3.1796,3.1744,3.1749,3.1714,3.17,3.1501,3.1619,3.1664,3.1652,3.1618,3.1649,3.1647,3.1669,3.1693,3.1785,3.183,3.1901,3.1593,3.1552,3.1442,3.1509,3.151,3.1508,3.1485,3.152,3.1245,3.1276,3.1211,3.1415,3.1508,3.1448,3.1446,3.1476,3.1457,3.1428,3.1367,3.1405,3.11,3.0922,3.1071,3.1176,3.1191,3.1256,3.1249,3.1247,3.1368,3.1079,3.1122,3.1268,3.1287,3.1197,3.1196,3.118,3.1154,3.1124,3.095,3.113,3.1075,3.1172,3.1148,3.1081,3.1115,3.1113,3.1099,3.1268,3.135,3.1251,3.1453,3.1191,3.1099,3.122,3.1189,3.1196,3.1135,3.1105,3.1297,3.112,3.1314,3.129,3.117,3.1087,3.1071,3.1048,3.0982,3.0988,3.0931,3.1123,3.1117,3.1101,3.1029,3.104,3.1032,3.0978,3.0889,3.1069,3.1251,3.1042,3.0978,3.1063,3.1021,3.1015,3.1023,3.1055,3.1129,3.0979,3.0965,3.0976,3.0852,3.1113,3.1139,3.1081,3.1068,3.1038,3.126,3.1136,3.1007,3.0886,3.1184,3.1017,3.112,3.1054,3.1054,3.108,3.0993,3.0946,3.1071,3.1065,3.1209,3.097,3.0988,3.101,3.1109,3.1117,3.1062,3.1074,3.0864,3.1122,3.0939,3.105,3.0963,3.0878,3.0867,3.0852,3.0906,3.0842,3.0618,3.0598,3.0649,3.0378,3.0475,3.0596,3.0613,3.063,3.0571,3.07,3.0566,3.0435,3.0364,3.057,3.0578,3.0578,3.0542,3.0479,3.054,3.0602,3.0307,3.0431,3.0386,3.0481,3.0596,3.0473,3.0479,3.0525,3.0462,3.0356,3.0265,3.0273,3.052,3.0431,3.044,3.0509,3.0503,3.0505,3.0509,3.0424,3.0341,3.0225,3.0435,3.037,3.0321,3.0419,3.0423,3.044,3.0418,3.0331,3.0294,3.0368,3.0563,3.0439,3.0455,3.0466,3.0468,3.0486,3.0352,3.0523,3.0488,3.0506,3.0625,3.0288,3.0436,3.0464,3.0465,3.051,3.0278,3.0341,3.0476,3.0431,3.0202,3.0473,3.0392,3.0435,3.0435,3.041,3.0606,3.0647,3.061,3.0616,3.0691,3.071,3.0624,3.0585,3.0479,3.0431,3.0597,3.064,3.0792,3.063,3.0813,3.0685,3.0872,3.0855,3.0853,3.0814,3.0835,3.0976,3.1468,3.1354,3.1353,3.1575,3.1517,3.1425,3.1412,3.1656,3.1589,3.1532,3.1545,3.1587,3.1521,3.1397,3.1536,3.1523,3.1571,3.1582,3.1507,3.1538,3.168,3.1496,3.1725,3.1696,3.161,3.1623,3.1633,3.1605,3.1877,3.1891,3.1925,3.1877,3.1397,3.1465,3.1559,3.1482,3.1507,3.1502,3.1523,3.1586,3.1402,3.1579,3.1475,3.1547,3.1606,3.161,3.1608,3.1637,3.1755,3.1736,3.1688,3.1631,3.1472,3.1583,3.1743,3.1751,3.1774,3.172,3.1886,3.1892,3.1838,3.179,3.1761,3.1989,3.1919,3.191,3.1906,3.1923,3.1937,3.2171,3.2085,3.2001,3.1898,3.1995,3.197,3.205,3.2076,3.2099,3.1904,3.1788,3.1937,3.2108,3.1906,3.1787,3.1734,3.1794,3.1799,3.183,3.1657,3.1718,3.1671,3.1804,3.1706,3.1792,3.1687,3.1731,3.1734,3.1789,3.1686,3.1609,3.1311,3.1526,3.1713,3.1559,3.1492,3.1473,3.1475,3.1223,3.1258,3.11,3.1105,3.1453,3.1557,3.1524,3.1439,3.1461,3.1415,3.14,3.1358,3.1303,3.1199,3.1527,3.1062,3.1179,3.1264,3.1319,3.1305,3.1335,3.1008,3.1066,3.1046,3.1199,3.1255,3.1391,3.149,3.1598,3.1579,3.1599,3.1644,3.2083,3.2222,3.2058,3.2001,3.1816,3.1884,3.1831,3.1826,3.1915,3.1792,3.1848,3.1692,3.1746,3.1878,3.1964,3.1818,3.1849,3.1828,3.2014,3.1873,3.1731,3.1854,3.1725,3.179,3.1669,3.1564,3.164,3.1646,3.1652,3.1605,3.1379,3.1476,3.1653,3.1859,3.1664,3.1772,3.1676,3.1649,3.1748,3.1853,3.1849,3.1869,3.1759,3.1913,3.1984,3.1944,3.1935,3.1928,3.1991,3.1976,3.2008,3.1995,3.2033,3.1935,3.2016,3.2049,3.2012,3.2017,3.204,3.2231,3.226,3.2446,3.234,3.2026,3.2006,3.1982,3.2032,3.2027,3.202,3.2006,3.2239,3.2356,3.2056,3.1918,3.1961,3.1854,3.2084,3.2149,3.2122,3.2291,3.2085,3.2241,3.1973,3.252,3.244,3.243,3.2369,3.2369,3.2331,3.2338,3.2401,3.2513,3.2598,3.2577,3.2433,3.2429,3.2323,3.2319,3.2372,3.232,3.2049,3.2031,3.2036,3.1926,3.2044,3.2091,3.2027,3.2028,3.1849,3.1862,3.1918,3.2099,3.2027,3.1956,3.2001,3.192,3.1895,3.1882,3.1778,3.1757,3.189,3.1882,3.2091,3.2151,3.205,3.2298,3.223,3.2284,3.2331,3.231,3.2259,3.2207,3.2195,3.2229,3.2179,3.2209,3.22,3.2217,3.2111,3.2154,3.2313,3.2208,3.2096,3.2087,3.1996,3.2065,3.2065,3.2069,3.2027,3.209,3.2005,3.2217,3.2146,3.2336,3.2199,3.2101,3.2093,3.2087,3.202,3.1878,3.1906,3.171,3.1802,3.2013,3.2113,3.2084,3.2053,3.2055,3.2092,3.2097,3.218,3.2192,3.2183,3.2252,3.2212,3.2253,3.2003,3.1944,3.1948,3.1988,3.2134,3.1932,3.1988,3.154,3.1441,3.1563,3.1571,3.1583,3.1627,3.157,3.1555,3.1545,3.1302,3.1277,3.1483,3.149,3.1503,3.1505,3.1428,3.1555,3.1411,3.1531,3.1478,3.1808,3.1778,3.1631,3.1641,3.164,3.1714,3.1684,3.1693,3.1819,3.1632,3.1716,3.1833,3.1893,3.1932,3.1983,3.1952,3.2071,3.1917,3.1947,3.1737,3.1572,3.1875,3.1596,3.1573,3.1515,3.1425,3.1474,3.1444,3.1549,3.1389,3.1316,3.1282,3.1237,3.1221,3.1228,3.1259,3.1185,3.1003,3.1134,3.0983,3.099,3.1247,3.1221,3.122,3.1218,3.1219,3.123,3.1396,3.118,3.0958,3.092,3.1094,3.1026,3.1202,3.1218,3.1247,3.1348,3.1513,3.1153,3.1238,3.1134,3.1162,3.1227,3.1199,3.1202,3.117,3.1188,3.0994,3.0867,3.0963,3.0953,3.095,3.1069,3.1063,3.1063,3.1067,3.0931,3.1004,3.1041,3.0943,3.1109,3.1232,3.1025,3.1122,3.1112,3.108,3.1113,3.1112,3.1014,3.1329,3.1426,3.1195,3.1156,3.1218,3.1244,3.1297,3.1314,3.1152,3.0999,3.1211,3.1101,3.1005,3.1097,3.1107,3.1127,3.1178,3.1164,3.1129,3.0911,3.1423,3.1203,3.1211,3.1169,3.1122,3.107,3.1095,3.1037,3.1019,3.1007,3.1378,3.1363,3.1121,3.1102,3.121,3.1209,3.1212,3.1178,3.1243,3.127,3.1567,3.1459,3.139,3.1341,3.1373,3.1348,3.1342,3.1339,3.1338,3.1213,3.1396,3.1242,3.1087,3.1162,3.1117,3.1115,3.1059,3.1036,3.0836,3.092,3.0936,3.0964,3.0839,3.1131,3.0956,3.0982,3.0937,3.0982,3.1023,3.145,3.1228,3.1111,3.106,3.1085,3.1103,3.1101,3.1133,3.1093,3.1146,3.124,3.1184,3.1166,3.116,3.1005,3.1022,3.1063,3.12,3.1152,3.1166,3.099,3.1637,3.1445,3.138,3.1447,3.1395,3.1401,3.1369,3.1584,3.1573,3.1474,3.1253,3.1463,3.1466,3.1472,3.1403,3.1374,3.1372,3.1343,3.1507,3.1571,3.1327,3.1364,3.1436,3.134,3.1333,3.1315,3.1222,3.1341,3.1277,3.123,3.0854,3.1174,3.0875,3.0887,3.0939,3.0939,3.0927,3.0893,3.0926,3.102,3.0775,3.0961,3.1069,3.1102,3.1114,3.1114,3.1173,3.1263,3.1302,3.1441,3.1306,3.1287,3.1357,3.1345,3.1305,3.131,3.1259,3.1312,3.1373,3.1451,3.143,3.1498,3.1677,3.1622,3.1627,3.1627,3.1641,3.1608,3.17,3.1707,3.1748,3.1645,3.1591,3.1497,3.1505,3.147,3.1485,3.1469,3.1207,3.1203,3.1319,3.1337,3.1446,3.1393,3.1393,3.1389,3.1415,3.1417,3.1329,3.1411,3.1189,3.1327,3.1301,3.1415,3.1454,3.1435,3.1317,3.1316,3.1303,3.1505,3.0918,3.1106,3.1068,3.114,3.1082,3.1073,3.1092,3.0909,3.0903,3.1106,3.1089,3.086,3.1057,3.0888,3.0888,3.0893,3.0857,3.0719,3.0649,3.059,3.0702,3.0526,3.065,3.0742,3.0736,3.0753,3.0725,3.0634,3.0848,3.0844,3.0955,3.083,3.0891,3.0861,3.0816,3.0815,3.0758,3.0845,3.0749,3.0629,3.1233,3.1065,3.0953,3.1073,3.0954,3.0957,3.0904,3.0888,3.0812,3.0468,3.0492,3.0675,3.0776,3.0849,3.0897,3.0907,3.1071,3.0953,3.0965,3.0926,3.1129,3.113,3.0935,3.1003,3.0992,3.0997,3.1008,3.1199,3.1169,3.1136,3.1147,3.1238,3.1234,3.1099,3.1168,3.1177,3.1242,3.1212,3.1224,3.0926,3.0923,3.097,3.0858,3.1024,3.1091,3.1113,3.106,3.1076,3.1126,3.1008,3.1091,3.1033,3.1199,3.1131,3.1084,3.1061,3.1033,3.1054,3.1041,3.1089,3.1183,3.11,3.1111,3.1168,3.1193,3.1204,3.1198,3.1274,3.1274,3.1134,3.1035,3.1215,3.1073,3.1139,3.1194,3.1187,3.122,3.124,3.1356,3.1592,3.1532,3.1432,3.1356,3.1443,3.1426,3.1424,3.145,3.1549,3.1361,3.1528,3.1421,3.1354,3.1459,3.1538,3.1606,3.1638,3.1681,3.1684,3.1892,3.1896,3.13,3.1148,3.1405,3.1303,3.1341,3.1337,3.1319,3.1344,3.1479,3.1496,3.1394,3.1551,3.1417,3.1313,3.1284,3.1271,3.1104,3.1186,3.1196,3.1284,3.1204,3.1143,3.1183,3.1168,3.1168,3.1167,3.1187,3.1084,3.1005,3.0995,3.0901,3.096,3.1117,3.118,3.1138,3.1119,3.1033,3.1179,3.125,3.1557,3.1497,3.1429,3.1368,3.133,3.1314,3.1296,3.1409,3.1538,3.1565,3.152,3.1375,3.1246,3.1087,3.1106,3.1142,3.1169,3.1248,3.122,3.0986,3.1209,3.1253,3.1336,3.1309,3.1169,3.117,3.1222,3.1221,3.1226,3.1302,3.146,3.1461,3.1355,3.1251,3.1309,3.1279,3.1295,3.1239,3.1403,3.145,3.1225,3.1384,3.1602,3.1535,3.132,3.1328,3.1311,3.1282,3.119,3.1258,3.1161,3.1386,3.1297,3.1366,3.135,3.1256,3.1224,3.1278,3.1224,3.1134,3.1083,3.1091,3.1386,3.1257,3.121,3.1193,3.1197,3.1234,3.1309,3.1203,3.1218,3.1295,3.0837,3.0897,3.0981,3.098,3.0981,3.103,3.0994,3.0881,3.0818,3.0593,3.0654,3.0584,3.0526,3.0632,3.0637,3.0589,3.0628,3.0961,3.0849,3.0919,3.0783,3.0861,3.0808,3.0832,3.0832,3.0837,3.0571,3.0749,3.0806,3.0802,3.0822,3.0984,3.0994,3.0925,3.0927,3.0881,3.0745,3.0649,3.0793,3.0899,3.1081,3.1222,3.1153,3.114,3.1106,3.1086,3.106,3.1293,3.0933,3.1002,3.0983,3.1194,3.1217,3.1246,3.1186,3.1294,3.1262,3.1163,3.1075,3.1208,3.1045,3.1039,3.1028,3.1071,3.1061,3.1232,3.1048,3.1,3.103,3.0905,3.0712,3.0715,3.0964,3.0953,3.0996,3.1021,3.106,3.1037,3.1224,3.102,3.1147,3.0895,3.0838,3.0855,3.0855,3.0865,3.0829,3.0748,3.0831,3.0699,3.0733,3.0644,3.0714,3.0697,3.0756,3.0762,3.0648,3.0691,3.0687,3.071,3.0782,3.094,3.093,3.1035,3.1035,3.1074,3.1135,3.1196,3.1252,3.1351,3.1363,3.1509,3.146,3.1366,3.1357,3.1367,3.1315,3.1053,3.1247,3.1105,3.1085,3.1034,3.1002,3.1084,3.1116,3.1111,3.1267,3.0977,3.0748,3.0732,3.0888,3.0763,3.0656,3.0808,3.082,3.0738,3.0853,3.1028,3.0845,3.0887,3.0745,3.0582,3.0715,3.0721,3.0722,3.0705,3.0901,3.0712,3.0796,3.0633,3.0467,3.0511,3.0518,3.0474,3.0474,3.0443,3.0454,3.0436,3.0555,3.0345,3.0595,3.0696,3.0733,3.0695,3.0689,3.0595,3.0774,3.0648,3.0599,3.0556,3.0927,3.1132,3.0841,3.0851,3.082,3.0855,3.0799,3.0855,3.0595,3.0674,3.0639,3.0527,3.0654,3.0659,3.0662,3.0551,3.0625,3.0559,3.0659,3.111,3.1014,3.0888,3.1133,3.1124,3.1074,3.1071,3.108,3.121,3.0998,3.1189,3.1209,3.1036,3.1124,3.1083,3.1116,3.1084,3.0965,3.0991,3.0848,3.0923,3.0971,3.0916,3.1018,3.1021,3.1037,3.1155,3.1068,3.1061,3.0894,3.1184,3.1392,3.1274,3.1312,3.1186,3.1155,3.1207,3.1132,3.1168,3.0991,3.1182,3.1139,3.1262,3.121,3.1072,3.1056,3.1052,3.1084,3.0995,3.1074,3.1047,3.1158,3.1324,3.1299,3.1288,3.1287,3.1404,3.1197,3.141,3.157,3.162,3.1614,3.1424,3.1381,3.1416,3.1412,3.1336,3.132,3.138,3.126,3.1305,3.1333,3.133,3.1187,3.1241,3.1242,3.1205,3.1094,3.123,3.1273,3.1446,3.119,3.0946,3.1116,3.1125,3.1113,3.1043,3.1248,3.1152,3.1161,3.1439,3.1484,3.1651,3.1587,3.1564,3.1582,3.1602,3.1637,3.1789,3.163,3.1363,3.1475,3.1586,3.1455,3.1563,3.1559,3.1558,3.1511,3.141,3.1871,3.1651,3.1671,3.1693,3.1683,3.1637,3.162,3.1603,3.1671,3.1674,3.1699,3.1698,3.1711,3.1624,3.1549,3.1576,3.1562,3.1453,3.1567,3.1765,3.1889,3.1716,3.1401,3.1404,3.1408,3.1403,3.1403,3.1358,3.1294,3.128,3.1428,3.1397,3.1512,3.1423,3.1458,3.1518,3.1529,3.1577,3.1569,3.1542,3.1501,3.166,3.1577,3.1427,3.1365,3.1376,3.1375,3.1239,3.1256,3.1211,3.1173,3.1204,3.1331,3.1389,3.1432,3.1393,3.1394,3.1396,3.1282,3.1522,3.1664,3.1732,3.1437,3.1429,3.1635,3.1605,3.1616,3.1663,3.1746,3.156,3.1658,3.1301,3.1398,3.1541,3.1544,3.1556,3.1564,3.1588,3.1416,3.1581,3.1638,3.1477,3.1278,3.1186,3.1206,3.1281,3.1297,3.135,3.1421,3.1409,3.136,3.1392,3.1227,3.1279,3.1337,3.1243,3.1233,3.1269,3.1362,3.1181,3.1008,3.1339,3.1332,3.1314,3.1208,3.1172,3.1163,3.1166,3.1147,3.1232,3.1144,3.113,3.1001,3.1264,3.128,3.1271,3.1269,3.1324,3.1234,3.1027,3.0916,3.1132,3.1433,3.1424,3.1406,3.1408,3.1415,3.143,3.1437,3.1416,3.1397,3.1393,3.1388,3.1311,3.1374,3.1357,3.136,3.1342,3.1321,3.1382,3.1516,3.1357,3.1529,3.1634,3.1687,3.1653,3.1669,3.1704,3.1745,3.1664,3.1431,3.1682,3.15,3.161,3.1533,3.1558,3.1558,3.1551,3.1557,3.1388,3.1032,3.133,3.1633,3.1594,3.1439,3.1402,3.1431,3.1404,3.145,3.1578,3.1465,3.153,3.1444,3.1566,3.1486,3.1484,3.1484,3.1509,3.1525,3.147,3.1705,3.1605,3.1617,3.1706,3.1615,3.16,3.1564,3.1497,3.1442,3.1533,3.16,3.1515,3.132,3.1215,3.115,3.13,3.13,3.1242,3.1154,3.1486,3.1316,3.1015,3.1205,3.1255,3.1283,3.1305,3.1306,3.1293,3.132,3.1474,3.1382,3.1454,3.1376,3.1201,3.1412,3.1382,3.1382,3.1373,3.1372,3.1345,3.1611,3.1412,3.1187,3.1354,3.1455,3.1439,3.1442,3.1461,3.155,3.1673,3.1769,3.1584,3.1456,3.1635,3.1648,3.1694,3.1752,3.1734,3.1671,3.1677,3.1529,3.1623,3.1397,3.1497,3.1466,3.1477,3.1461,3.1409,3.1508,3.1711,3.1908,3.1522,3.1718,3.1613,3.1579,3.1576,3.1587,3.1582,3.1843,3.1806,3.1841,3.1721,3.1465,3.1684,3.1675,3.1655,3.1618,3.1567,3.1449,3.1371,3.1328,3.1513,3.1521,3.138,3.1422,3.1431,3.1423,3.1376,3.1384,3.147,3.133,3.114,3.1305,3.143,3.1485,3.148,3.1486,3.1558,3.1476,3.1481,3.1459,3.1453,3.1529,3.1594,3.1651,3.1529,3.1533,3.1554,3.1622,3.1311,3.1421,3.1409,3.1251,3.1232,3.136,3.1335,3.1342,3.1323,3.1321,3.1252,3.1475,3.137,3.1495,3.1501,3.1358,3.143,3.1435,3.144,3.1431,3.147,3.1338,3.1522,3.1704,3.1593,3.148,3.1584,3.1595,3.164,3.1639,3.1591,3.1414,3.1665,3.1622,3.1549,3.1614,3.1515,3.1471,3.1492,3.1597,3.1552,3.1692,3.1694,3.1801,3.1571,3.1596,3.1615,3.162,3.1616,3.1689,3.1353,3.1305,3.1387,3.1463,3.1475,3.1614,3.1591,3.1624,3.1678,3.1489,3.1559,3.1517,3.1544,3.1803,3.1679,3.163,3.1665,3.1667,3.1689,3.1739,3.181,3.2005,3.183,3.1766,3.1596,3.1592,3.1688,3.1689,3.1707,3.1647,3.1508,3.1565,3.1719,3.1598,3.1343,3.1444,3.1412,3.1445,3.1393,3.137,3.1307,3.1383,3.1534,3.1824,3.2033,3.1795,3.179,3.1802,3.1754,3.1747,3.1867,3.1905,3.203,3.2092,3.2004,3.1823,3.1834,3.1818,3.1836,3.182,3.1766,3.1821,3.1896,3.1797,3.1742,3.1653,3.1658,3.1667,3.161,3.1718,3.168,3.1806,3.1566,3.1408,3.1458,3.1465,3.1395,3.1379,3.1301,3.127,3.1262,3.124,3.1083,3.1084,3.1193,3.1033,3.1102,3.1081,3.1047,3.0908,3.093,3.1017,3.1107,3.1056,3.1039,3.1008,3.1062,3.1068,3.1086,3.1024,3.1133,3.1168,3.1064,3.0857,3.088,3.0855,3.0918,3.0872,3.0858,3.0843,3.0739,3.082,3.0567,3.032,3.032,3.0543,3.0555,3.0555,3.0532,3.0662,3.0581,3.0567,3.0531,3.06,3.0792,3.0707,3.065,3.0653,3.063,3.0767,3.0924,3.0822,3.0711,3.0726,3.0801,3.0722,3.0699,3.0668,3.0642,3.0676,3.0526,3.0442,3.0413,3.0267,2.9957,3.0133,3.0145,3.0134,3.017,3.0103,3.0046,2.9966,2.9879,2.988,3.0132,3.0172,3.0195,3.0197,3.02,3.0298,3.0134,3.0154,3.0128,3.0115,2.9966,3.0155,3.0092,3.0084,3.0092,3.0113,3.0088,2.9839,2.9996,2.9972,2.9882,2.9874,2.9942,2.9957,2.995,2.9878,2.9997,3.0048,3.0146,3.0234,3.0027,3.0144,3.0104,3.0093,3.0098,3.0137,3.0281,3.0072,2.9841,2.9944,2.9928,3.0022,2.9989,2.9991,2.9972,2.9825,2.9858,2.9995,3.0354,3.0339,3.0187,3.0172,3.0152,3.0217,3.0209,3.0189,3.029,3.0524,3.0653,3.0694,3.0801,3.0622,3.0573,3.0568,3.0655,3.0444,3.041,3.0154,3.0378,3.0346,3.0382,3.0509,3.0474,3.0476,3.0617,3.0576,3.0407,3.0267,3.0404,3.0746,3.0647,3.0614,3.0647,3.0645,3.073,3.0676,3.1079,3.1106,3.0935,3.0801,3.0922,3.0875,3.0847,3.0844,3.0812,3.0906,3.0881,3.0945,3.0839,3.1029,3.0791,3.0898,3.0931,3.0944,3.1051,3.0939,3.1061,3.0848,3.0648,3.0963,3.1212,3.1091,3.1089,3.1099,3.113,3.0982,3.107,3.1062,3.1016,3.1276,3.1512,3.1494,3.1425,3.1501,3.1511,3.1579,3.1516,3.1513,3.1387,3.124,3.1485,3.1414,3.1392,3.1393,3.1424,3.137,3.1405,3.1565,3.1594,3.1556,3.1755,3.1581,3.1527,3.1515,3.1512,3.1511,3.1826,3.1625,3.1456,3.1565,3.1802,3.1762,3.1728,3.1693,3.1752,3.1748,3.1675,3.143,3.153,3.152,3.1353,3.1325,3.1374,3.1378,3.1298,3.1317,3.1368,3.1702,3.1746,3.169,3.1715,3.1733,3.1689,3.1698,3.1597,3.1531,3.1474,3.1616,3.1568,3.1391,3.158,3.1554,3.154,3.1533,3.1445,3.1562,3.1357,3.126,3.1374,3.1527,3.1672,3.162,3.162,3.1617,3.1711,3.1615,3.1579,3.1593,3.1736,3.1604,3.1666,3.1493,3.1615,3.1646,3.1627,3.162,3.1575,3.1824,3.2167,3.1953,3.1906,3.1904,3.1936,3.192,3.1984,3.2019,3.1917,3.2007,3.2063,3.2047,3.1854,3.1949,3.1962,3.1903,3.1924,3.184,3.1825,3.1872,3.2041,3.2171,3.2066,3.2064,3.2084,3.2095,3.2085,3.226,3.206,3.2067,3.2105,3.2072,3.207,3.2088,3.2129,3.2128,3.2161,3.2145,3.1998,3.2003,3.2079,3.2106,3.2101,3.2101,3.2087,3.206,3.2009,3.2138,3.2028,3.2004,3.1797,3.2063,3.2299,3.2295,3.2268,3.227,3.2271,3.2207,3.2269,3.2027,3.2359,3.2329,3.2228,3.2063,3.2216,3.2207,3.2272,3.2273,3.2463,3.2528,3.2334,3.222,3.2284,3.2301,3.2327,3.2335,3.2342,3.2316,3.234,3.2465,3.232,3.2211,3.2315,3.2297,3.2288,3.2312,3.232,3.2313,3.2437,3.2506,3.2355,3.2274,3.2287,3.2353,3.2182,3.2148,3.2034,3.2113,3.2055,3.2125,3.186,3.1886,3.202,3.1983,3.1961,3.1965,3.1852,3.1909,3.1899,3.1942,3.2171,3.2029,3.1907,3.183,3.1826,3.1791,3.176,3.1874,3.1803,3.1868,3.1639,3.159,3.1708,3.1718,3.1726,3.1717,3.1812,3.1604,3.1539,3.1433,3.1429,3.1361,3.1476,3.1535,3.1497,3.1518,3.1585,3.1616,3.1481,3.1429,3.1299,3.1422,3.1188,3.1262,3.128,3.128,3.1295,3.1137,3.1131,3.1242,3.1664,3.1403,3.1072,3.1139,3.1146,3.1143,3.114,3.1261,3.1268,3.1328,3.0941,3.098,3.0922,3.1085,3.0938,3.0934,3.0832,3.0883,3.0642,3.0552,3.0856,3.0895,3.089,3.0881,3.0836,3.0833,3.0873,3.0807,3.0563,3.051,3.0864,3.1055,3.0787,3.0793,3.0791,3.0767,3.0673,3.0713,3.0695,3.0671,3.0728,3.0652,3.0644,3.08,3.0882,3.088,3.0897,3.0779,3.1149,3.1028,3.1136,3.1088,3.0841,3.1052,3.1026,3.1022,3.1048,3.1028,3.1183,3.0973,3.0613,3.0889,3.0982,3.1003,3.1014,3.1014,3.109,3.1005,3.126,3.1081,3.1135,3.108,3.0919,3.0931,3.0948,3.0946,3.0853,3.0892,3.0898,3.0815,3.1078,3.119,3.1231,3.1147,3.1174,3.1154,3.1052,3.1072,3.1228,3.1219,3.1601,3.1338,3.1356,3.1423,3.141,3.1457,3.14,3.1522,3.1645,3.1669,3.1197,3.1169,3.126,3.1242,3.1343,3.134,3.1382,3.1366,3.1353,3.1466,3.1221,3.119,3.1369,3.121,3.1225,3.1224,3.1251,3.1199,3.1268,3.1225,3.1254,3.1163,3.1002,3.1065,3.1062,3.106,3.105,3.1083,3.1373,3.1284,3.0986,3.0874,3.0915,3.0974,3.0994,3.0993,3.105,3.1156,3.1006,3.118,3.1151,3.1195,3.1168,3.1131,3.105,3.1042,3.1083,3.1096,3.0994,3.0996,3.0953,3.0983,3.0938,3.0797,3.0839,3.0843,3.0853,3.0806,3.0797,3.1151,3.137,3.0922,3.0861,3.1001,3.0986,3.0987,3.0923,3.1094,3.0907,3.1006,3.1037,3.1067,3.106,3.0961,3.0989,3.0989,3.0958,3.0915,3.1151,3.1142,3.1004,3.0996,3.0748,3.093,3.0956,3.0961,3.0963,3.091,3.0916,3.1108,3.0853,3.0978,3.0988,3.096,3.1059,3.1022,3.1027,3.1133,3.1304,3.1326,3.1542,3.152,3.1487,3.16,3.1474,3.1479,3.1421,3.1443,3.1561,3.1301,3.1386,3.1611,3.1793,3.1818,3.1803,3.1807,3.1809,3.189,3.2009,3.23,3.204,3.2081,3.2094,3.2052,3.2126,3.2126,3.2183,3.2103,3.1981,3.2122,3.2234,3.2227,3.2248,3.2163,3.2188,3.2188,3.2155,3.2023,3.218,3.1967,3.1961,3.2009,3.2215,3.2251,3.2297,3.234,3.2451,3.2486,3.216,3.2035,3.2086,3.2431,3.2695,3.2623,3.2584,3.258,3.2628,3.2605,3.258,3.2381,3.2353,3.2414,3.2568,3.2398,3.2433,3.2435,3.2436,3.2372,3.2332,3.2308,3.2268,3.2303,3.2247,3.2294,3.2275,3.2286,3.2359,3.235,3.2197,3.2161,3.2286,3.2338,3.231,3.2217,3.2163,3.2157,3.2187,3.2233,3.2004,3.1982,3.1899,3.1887,3.201,3.1897,3.1801,3.1803,3.1805,3.1773,3.1626,3.1823,3.1658,3.1655,3.1701,3.1593,3.1651,3.1649,3.1672,3.1709,3.1626,3.1713,3.1934,3.181,3.148,3.1599,3.1629,3.1639,3.1685,3.1689,3.1486,3.1201,3.1415,3.1505,3.1535,3.1489,3.1425,3.1432,3.135,3.1461,3.1352,3.1442,3.1399,3.1555,3.1451,3.1471,3.1568,3.1614,3.1651,3.1651,3.1517,3.171,3.1744,3.1691,3.1462,3.1307,3.1268,3.1243,3.1159,3.1234,3.1287,3.1423,3.1318,3.0862,3.0661,3.0714,3.0818,3.0816,3.0747,3.079,3.0861,3.0847,3.0728,3.0856,3.0845,3.0963,3.0917,3.0917,3.103,3.0888,3.0928,3.0906,3.1188,3.1331,3.1286,3.1364,3.1304,3.1297,3.1224,3.1351,3.148,3.1797,3.1451,3.127,3.1245,3.1272,3.1334,3.1336,3.1319,3.1308,3.1391,3.1284,3.1426,3.136,3.1373,3.1341,3.1484,3.1471,3.1494,3.1394,3.1417,3.1225,3.1386,3.1319,3.1287,3.1316,3.1327,3.136,3.1503,3.1421,3.1392,3.1326,3.1317,3.1263,3.148,3.1304,3.1322,3.131,3.1236,3.1183,3.1572,3.1747,3.1486,3.1334,3.1425,3.1451,3.1446,3.1511,3.1524,3.1407,3.1602,3.1574,3.1728,3.1811,3.1836,3.1831,3.1715,3.1669,3.1625,3.1671,3.1868,3.1617,3.1864,3.1875,3.191,3.1906,3.1887,3.1869,3.1841,3.1779,3.1828,3.1956,3.1855,3.1889,3.1868,3.1936,3.1836,3.1836,3.1828,3.1907,3.176,3.1733,3.1536,3.1751,3.1749,3.1637,3.165,3.1649,3.1526,3.1658,3.1718,3.1866,3.1674,3.1329,3.1676,3.1575,3.1611,3.1631,3.1659,3.1632,3.1461,3.1307,3.1502,3.1874,3.1963,3.1949,3.1886,3.1886,3.193,3.1932,3.2042,3.2163,3.1953,3.2046,3.1857,3.1885,3.1797,3.1802,3.1801,3.1692,3.1699,3.1625,3.1692,3.1709,3.167,3.1763,3.1724,3.1689,3.1526,3.1495,3.1472,3.172,3.1612,3.159,3.1426,3.1585,3.1538,3.1581,3.1594,3.1631,3.1253,3.0939,3.11,3.1247,3.1436,3.1627,3.1675,3.16,3.1682,3.1966,3.188,3.1636,3.1417,3.1472,3.147,3.15,3.1466,3.1466,3.1509,3.1509,3.1357,3.1273,3.1211,3.1077,3.1031,3.123,3.1223,3.1222,3.1162,3.1236,3.1319,3.109,3.1209,3.1125,3.1404,3.137,3.1456,3.1456,3.1515,3.1412,3.1655,3.1642,3.1959,3.1714,3.1572,3.1565,3.1559,3.1557,3.1563,3.1412,3.1698,3.1703,3.1848,3.1962,3.1752,3.1755,3.1727,3.1705,3.1746,3.1764,3.1891,3.1903,3.1674,3.1154,3.1223,3.1188,3.121,3.1218,3.1167,3.1125,3.1133,3.1044,3.1268,3.1154,3.122,3.1299,3.126,3.1278,3.134,3.1343,3.1338,3.1384,3.134,3.1546,3.1507,3.1511,3.1477,3.1477,3.1498,3.1551,3.158,3.1313,3.1199,3.1376,3.1363,3.1309,3.1347,3.1302,3.1345,3.134,3.1326,3.15,3.1558,3.1472,3.1139,3.1114,3.1066,3.107,3.0981,3.0693,3.076,3.0974,3.104,3.0801,3.0926,3.0983,3.0999,3.0999,3.0952,3.0911,3.0992,3.1087,3.0946,3.1146,3.1182,3.1018,3.1022,3.103,3.1161,3.1045,3.0994,3.0853,3.0849,3.123,3.1067,3.0967,3.0949,3.0951,3.1037,3.1131,3.0772,3.08,3.1036,3.0973,3.0896,3.0986,3.0998,3.1,3.0992,3.106,3.1038,3.0822,3.0653,3.0759,3.0739,3.0875,3.0883,3.0887,3.0836,3.0993,3.0955,3.0704,3.0977,3.1154,3.1037,3.1054,3.1062,3.1061,3.1093,3.1191,3.1063,3.1142,3.096,3.0928,3.0909,3.0942,3.1014,3.0995,3.1008,3.1186,3.1051,3.0953,3.0833,3.0678,3.0869,3.0803,3.0822,3.0823,3.0993,3.0898,3.0893,3.1094,3.1082,3.0879,3.0976,3.0943,3.0937,3.0942,3.0893,3.0814,3.1147,3.1026,3.1326,3.1301,3.1325,3.1174,3.1168,3.1198,3.1186,3.1221,3.1299,3.1418,3.1505,3.128,3.1134,3.1133,3.115,3.1165,3.1135,3.1276,3.1268,3.1143,3.1029,3.1129,3.1178,3.1107,3.1242,3.1235,3.1203,3.1288,3.1392,3.1494,3.1394,3.1095,3.1234,3.1295,3.1317,3.132,3.1266,3.1383,3.1455,3.1748,3.1219,3.1132,3.1202,3.1084,3.1038,3.1192,3.135,3.141,3.1045,3.1068,3.0947,3.0801,3.0729,3.071,3.0858,3.1024,3.1172,3.101,3.0939,3.1048,3.0752,3.0645,3.0637,3.0723,3.0878,3.1062,3.1208,3.1262,3.1203,3.0947,3.0777,3.0787,3.0825,3.08,3.0887,3.1103,3.1177,3.111,3.1178,3.1119,3.0979,3.0907,3.0753,3.0794,3.1017,3.1275,3.1213,3.1441,3.1374,3.1042,3.0991,3.1023,3.082,3.0969
